#Digilent WaveForms Oscilloscope Acquisition
#Device Name: Discovery2
#Serial Number: SN:210321A2ABA7
#Date Time: 2018-10-02 15:24:39.445
#Sample rate: 2666.67Hz
#Samples: 8192
#Trigger: Source: Channel 1 Type: Edge Condition: Rising Level: 0 V Hyst.: Auto HoldOff: 0 s
#Channel 2: Range: 200 mV/div Offset: -116 mV

Time (s),Channel 2 (V)
-1.54125,-0.098718365701004729
-1.540875,-0.1097754316473584
-1.5405,-0.11949224717597223
-1.540125,-0.12719868707797904
-1.5397500000000002,-0.13322981395780281
-1.5393750000000002,-0.13725056521102325
-1.5390000000000001,-0.13959600344206979
-1.5386250000000001,-0.13926094083763485
-1.5382500000000001,-0.13725056521102508
-1.5378750000000001,-0.13255968874893564
-1.5375000000000001,-0.12585843666023644
-1.5371250000000001,-0.11748187154936246
-1.5367500000000001,-0.10742999341631368
-1.536375,-0.096037864865525069
-1.536,-0.083640548501431572
-1.535625,-0.070908169532903104
-1.53525,-0.056835540146634833
-1.534875,-0.042762910760366535
-1.5345,-0.027685093560786647
-1.534125,-0.012942338965648156
-1.5337500000000002,0.0024705408383459693
-1.5333750000000002,0.017213295433484488
-1.5330000000000001,0.031956050028629404
-1.5326250000000001,0.045693616810462731
-1.5322500000000001,0.05876105838342615
-1.5318750000000001,0.070153186934214767
-1.5315000000000001,0.07987000246282859
-1.5311250000000001,0.087911504969267612
-1.5307500000000001,0.093607569244661917
-1.530375,0.096958195289011506
-1.53,0.097963383102316393
-1.529625,0.096958195289011506
-1.52925,0.094277694453531846
-1.528875,0.089251755387007442
-1.5285,0.082550503298304309
-1.528125,0.073838875582994595
-1.5277500000000002,0.063451934845520308
-1.5273750000000001,0.051389681085862518
-1.5270000000000001,0.037987176908458667
-1.5266250000000001,0.023244422313320454
-1.5262500000000001,0.0078315425093123253
-1.5258750000000001,-0.007581337294695803
-1.5255000000000001,-0.022659154494268974
-1.5251250000000001,-0.037736971693842131
-1.52475,-0.052479726288980344
-1.524375,-0.066552355675248642
-1.524,-0.079954859852647026
-1.523625,-0.092017113612305551
-1.52325,-0.10206899174535433
-1.522875,-0.1097754316473584
-1.5225,-0.11513643331831912
-1.5221250000000002,-0.118151996758231
-1.5217500000000002,-0.11848705936266719
-1.5213750000000001,-0.1164766837360576
-1.5210000000000001,-0.11245593248283808
-1.5206250000000001,-0.10642480560300882
-1.5202500000000001,-0.098718365701004729
-1.5198750000000001,-0.089671675381260835
-1.5195000000000001,-0.079284734643777111
-1.5191250000000001,-0.067557543488553529
-1.51875,-0.054490101915590117
-1.518375,-0.040082409924886847
-1.518,-0.024669530120878719
-1.517625,-0.0085865251080006755
-1.51725,0.0081666051137472828
-1.516875,0.024919735335502874
-1.5165,0.041672865557250541
-1.5161250000000002,0.057755870570113957
-1.5157500000000002,0.073503812978557209
-1.5153750000000001,0.087911504969267612
-1.5150000000000001,0.10097894654223102
-1.5146250000000001,0.11237107509301965
-1.5142500000000001,0.12108270280832859
-1.5138750000000001,0.12744889229259282
-1.5135000000000001,0.13079951833694242
-1.5131250000000001,0.13046445573250745
-1.51275,0.12711382968815785
-1.512375,0.12108270280832859
-1.512,0.11203601248858469
-1.511625,0.10164907175110094
-1.51125,0.089251755387007442
-1.510875,0.075514188605167412
-1.5105,0.060771434010028894
-1.5101250000000002,0.045358554206034782
-1.5097500000000001,0.028940486588714773
-1.5093750000000001,0.012522418971401758
-1.5090000000000001,-0.0045657738547811716
-1.5086250000000001,-0.021318904076529144
-1.5082500000000001,-0.037066846484972216
-1.5078750000000001,-0.051809601080110429
-1.5075000000000001,-0.065547167861943756
-1.507125,-0.077274359017167338
-1.50675,-0.086656111941346203
-1.506375,-0.093692426634480352
-1.506,-0.098048240492134814
-1.505625,-0.099723553514309615
-1.50525,-0.098383303096569785
-1.504875,-0.094027489238912423
-1.5045000000000002,-0.08766129975465399
-1.5041250000000002,-0.079284734643780913
-1.5037500000000001,-0.068897793906293359
-1.5033750000000001,-0.056835540146634833
-1.5030000000000001,-0.04343303596923645
-1.5026250000000001,-0.029360406582968152
-1.5022500000000001,-0.014282589383394995
-1.5018750000000001,0.0011302904206131476
-1.5015000000000001,0.016208107620186318
-1.501125,0.03061579961088956
-1.50075,0.044353366392722901
-1.500375,0.057085745361251355
-1.5,0.068812936516474937
-1.499625,0.079534939858393633
-1.49925,0.088581630178141191
-1.498875,0.096623132684579616
-1.4985000000000002,0.10332438477327269
-1.4981250000000002,0.10902044904866745
-1.4977500000000001,0.11304120030188956
-1.4973750000000001,0.11538663853293428
-1.4970000000000001,0.11605676374180419
-1.4966250000000001,0.11505157592849932
-1.4962500000000001,0.11170094988414972
-1.4958750000000001,0.10701007342206029
-1.4955000000000001,0.10030882133336111
-1.495125,0.091597193618052158
-1.49475,0.080875190276133463
-1.494375,0.068812936516474937
-1.494,0.055410432339076554
-1.493625,0.041672865557243227
-1.49325,0.027265173566533421
-1.492875,0.012857481575830469
-1.4925000000000002,-0.00088008520599036459
-1.4921250000000001,-0.014282589383394995
-1.4917500000000001,-0.026679905747488492
-1.4913750000000001,-0.038072034298277102
-1.4910000000000001,-0.048123912431325883
-1.4906250000000001,-0.056500477542199862
-1.4902500000000001,-0.063536792235334011
-1.4898750000000001,-0.068897793906293359
-1.4895,-0.072248419950642961
-1.489125,-0.073923732972817763
-1.48875,-0.073923732972817763
-1.488375,-0.07191335734620799
-1.488,-0.067892606092988472
-1.487625,-0.062196541817590982
-1.48725,-0.05516022712445607
-1.4868750000000002,-0.046448599409155043
-1.4865000000000002,-0.036396721276106873
-1.4861250000000001,-0.025339655329748634
-1.4857500000000001,-0.013947526778960023
-1.4853750000000001,-0.0022203356237364552
-1.4850000000000001,0.0098419181359220842
-1.4846250000000001,0.021904171895580624
-1.4842500000000001,0.034301488259674121
-1.4838750000000001,0.047033867228202575
-1.4835,0.059766246196731029
-1.483125,0.072498625165259484
-1.48275,0.084560878924918023
-1.482375,0.095617944871271676
-1.482,0.10566982300432046
-1.481625,0.1143814507196329
-1.48125,0.12208789062163591
-1.4808750000000002,0.12744889229259038
-1.4805000000000001,0.1307995183369409
-1.4801250000000001,0.13213976875468225
-1.4797500000000001,0.13079951833694242
-1.4793750000000001,0.12744889229259282
-1.4790000000000001,0.12141776541276354
-1.4786250000000001,0.11304120030188956
-1.4782500000000001,0.10298932216884078
-1.477875,0.091262131013617201
-1.4775,0.078529752045088747
-1.477125,0.064457122658820448
-1.47675,0.050049430668117206
-1.476375,0.035306676072978993
-1.476,0.020898984082275737
-1.475625,0.007161417300436468
-1.47525,-0.0059060242725269439
-1.4748750000000002,-0.018973465845478484
-1.4745000000000001,-0.030700657000708009
-1.4741250000000001,-0.041757722947061648
-1.4737500000000001,-0.051809601080110429
-1.4733750000000001,-0.060521228795419379
-1.4730000000000001,-0.067892606092988472
-1.4726250000000001,-0.073588670368382791
-1.4722500000000001,-0.077274359017167338
-1.471875,-0.078279546830472224
-1.4715,-0.076939296412732394
-1.471125,-0.07325360776394782
-1.47075,-0.066887418279683614
-1.470375,-0.058510853168809634
-1.47,-0.047788849826885423
-1.469625,-0.035726596067226141
-1.4692500000000002,-0.021989029285405304
-1.4688750000000002,-0.0072462746902675502
-1.4685000000000001,0.0085016677181822542
-1.4681250000000001,0.024919735335495255
-1.4677500000000001,0.041672865557243227
-1.4673750000000001,0.05876105838342615
-1.4670000000000001,0.075514188605174115
-1.4666250000000001,0.09193225622248713
-1.4662500000000001,0.10801526123536517
-1.465875,0.12275801583050339
-1.4655,0.13616052000790174
-1.465125,0.14755264855869038
-1.46475,0.15693440148286925
-1.464375,0.16397071617600339
-1.464,0.16866159263809374
-1.463625,0.17067196826470271
-1.4632500000000002,0.17100703086913741
-1.4628750000000001,0.16866159263809388
-1.4625000000000001,0.16464084138487331
-1.4621250000000001,0.15860971450504402
-1.4617500000000001,0.15056821199860501
-1.4613750000000001,0.14051633386555623
-1.4610000000000001,0.12845408010589771
-1.4606250000000001,0.11471651332406436
-1.46025,0.099638696124491194
-1.459875,0.082550503298308264
-1.4595,0.064457122658820448
-1.459125,0.045693616810462731
-1.45875,0.026595048357670056
-1.458375,0.0071614173004424103
-1.458,-0.011937151152358811
-1.4576249999999999,-0.030700657000715781
-1.4572500000000002,-0.04778884982688314
-1.4568750000000001,-0.063536792235334011
-1.4565000000000001,-0.077609421621602309
-1.4561250000000001,-0.089336612776825891
-1.4557500000000001,-0.0990534283054397
-1.4553750000000001,-0.10575468039413888
-1.4550000000000001,-0.10944036904292345
-1.4546250000000001,-0.11044555685622831
-1.45425,-0.10843518122961857
-1.453875,-0.10340924216309416
-1.4535,-0.095702802261090097
-1.453125,-0.085985986732476288
-1.45275,-0.074258795577252706
-1.452375,-0.060186166190977247
-1.452,-0.04443822378253387
-1.4516250000000002,-0.028020156165235788
-1.4512500000000002,-0.010261838130183554
-1.4508750000000001,0.0078315425093123253
-1.4505000000000001,0.02558986054436517
-1.4501250000000001,0.043348178579418015
-1.4497500000000001,0.060771434010035902
-1.4493750000000001,0.076854439022913945
-1.4490000000000001,0.09193225622248713
-1.4486250000000001,0.10566982300432046
-1.44825,0.117732076763979
-1.447875,0.12711382968815785
-1.4475,0.13381508177685705
-1.447125,0.13783583303007654
-1.44675,0.13884102084338143
-1.446375,0.13750077042563993
-1.446,0.13381508177685447
-1.4456250000000002,0.12811901750146532
-1.4452500000000001,0.12108270280833179
-1.4448750000000001,0.11203601248858469
-1.4445000000000001,0.10198413435553591
-1.4441250000000001,0.090592005804747286
-1.4437500000000001,0.077859626836218832
-1.4433750000000001,0.064457122658820448
-1.4430000000000001,0.050719555876987121
-1.442625,0.036646926490718837
-1.44225,0.022239234500015581
-1.441875,0.0088367303226172117
-1.4415,-0.0038956486459112427
-1.441125,-0.015957902405569796
-1.44075,-0.027014968351923435
-1.440375,-0.03639672127610611
-1.4400000000000002,-0.04477328638697247
-1.4396250000000002,-0.05247972628897684
-1.4392500000000001,-0.059180978377679549
-1.4388750000000001,-0.064541980048638897
-1.4385000000000001,-0.06923285651072833
-1.4381250000000001,-0.072583482555077905
-1.4377500000000001,-0.074593858181687678
-1.4373750000000001,-0.074928920786122621
-1.4370000000000001,-0.07325360776394782
-1.436625,-0.069567919115163274
-1.43625,-0.063871854839768982
-1.435875,-0.056835540146634833
-1.4355,-0.048123912431325883
-1.435125,-0.037736971693842131
-1.43475,-0.027014968351918255
-1.434375,-0.015622839801129645
-1.4340000000000002,-0.004230711250351394
-1.4336250000000001,0.0068263546960024239
-1.4332500000000001,0.017213295433491191
-1.4328750000000001,0.027265173566539971
-1.4325000000000001,0.036311863886283879
-1.4321250000000001,0.044353366392722901
-1.4317500000000001,0.051389681085857036
-1.4313750000000001,0.057085745361251355
-1.431,0.061776621823340781
-1.430625,0.06479218526325542
-1.43025,0.066467498285430221
-1.429875,0.06613243568099525
-1.4295,0.064457122658820448
-1.429125,0.060436371405600944
-1.42875,0.054740307130203135
-1.428375,0.047033867228198002
-1.4280000000000002,0.036981989095158367
-1.4276250000000001,0.02491973533550074
-1.4272500000000001,0.011182168553661928
-1.4268750000000001,-0.0042307112503462141
-1.4265000000000001,-0.020648778867659229
-1.4261250000000001,-0.037401909089407187
-1.4257500000000001,-0.054155039311155145
-1.4253750000000001,-0.070238044324033189
-1.425,-0.085985986732476288
-1.424625,-0.10106380393204945
-1.42425,-0.1148013707138828
-1.423875,-0.1271986870779763
-1.4235,-0.13825575302432996
-1.423125,-0.14763750594850883
-1.42275,-0.1550088832460802
-1.4223750000000002,-0.16003482231260002
-1.4220000000000002,-0.1630503857525156
-1.4216250000000001,-0.16372051096138684
-1.4212500000000001,-0.16204519793921207
-1.4208750000000001,-0.15802444668599253
-1.4205000000000001,-0.15266344501503321
-1.4201250000000001,-0.14495700511302911
-1.4197500000000001,-0.13591031479328525
-1.4193750000000001,-0.1255233740558015
-1.419,-0.11413124550501288
-1.418625,-0.10173392914091939
-1.41825,-0.088331424963521005
-1.417875,-0.074593858181687678
-1.4175,-0.060186166190984408
-1.417125,-0.045443411595839645
-1.41675,-0.031035719605136857
-1.4163750000000002,-0.017633215427750662
-1.4160000000000001,-0.0055709616680915293
-1.4156250000000001,0.0048159790693976939
-1.4152500000000001,0.013527606784706631
-1.4148750000000001,0.02056392147784078
-1.4145000000000001,0.025924923148800127
-1.4141250000000001,0.029610611797584688
-1.4137500000000001,0.031620987424194447
-1.413375,0.030950862215324518
-1.413,0.027935298775409886
-1.412625,0.021904171895580624
-1.41225,0.013527606784706631
-1.411875,0.0024705408383529776
-1.4115,-0.010931963339045392
-1.411125,-0.026344843143061292
-1.4107499999999999,-0.043433035969244832
-1.4103750000000002,-0.061861479213150827
-1.4100000000000001,-0.080624985061508406
-1.4096250000000001,-0.099723553514309615
-1.4092500000000001,-0.11882212196710229
-1.4088750000000001,-0.13725056521102508
-1.4085000000000001,-0.15500888324607792
-1.4081250000000001,-0.17142695086339094
-1.4077500000000001,-0.18616970545852912
-1.407375,-0.19923714703149253
-1.407,-0.20962408776897629
-1.406625,-0.21766559027541532
-1.40625,-0.22369671715524458
-1.405875,-0.22671228059515919
-1.4055,-0.22671228059515919
-1.405125,-0.22403177975967709
-1.4047500000000002,-0.21867077808872265
-1.4043750000000002,-0.21163446339558925
-1.4040000000000001,-0.20292283568027708
-1.4036250000000001,-0.19287095754722833
-1.4032500000000001,-0.18181389160087463
-1.4028750000000001,-0.17008670044565111
-1.4025000000000001,-0.15768938408155758
-1.4021250000000001,-0.14529206771746411
-1.4017500000000001,-0.13255968874893564
-1.401375,-0.11949224717597223
-1.401,-0.10675986820744376
-1.400625,-0.093692426634480352
-1.40025,-0.080960047665951884
-1.399875,-0.068562731301858415
-1.3995,-0.056165414937759582
-1.399125,-0.044438223782536306
-1.3987500000000002,-0.0333811578361927
-1.3983750000000001,-0.02366434230757828
-1.3980000000000001,-0.01495271459226491
-1.3976250000000001,-0.007581337294695803
-1.3972500000000001,-0.0022203356237364552
-1.3968750000000001,0.0014653530250481051
-1.3965000000000001,0.0034757286516578639
-1.3961250000000001,0.0041458538605277789
-1.39575,0.0034757286516578639
-1.395375,0.0014653530250481051
-1.395,-0.0018852730193014977
-1.394625,-0.0072462746902608455
-1.39425,-0.014282589383394995
-1.393875,-0.023329279703138889
-1.3935,-0.034051283045063073
-1.3931249999999999,-0.046113536804722077
-1.3927500000000002,-0.05918097837767361
-1.3923750000000001,-0.072918545159512876
-1.3920000000000001,-0.086656111941346203
-1.3916250000000001,-0.1007287413276145
-1.3912500000000001,-0.1148013707138828
-1.3908750000000001,-0.12820387489128116
-1.3905000000000001,-0.14160637906867957
-1.3901250000000001,-0.15366863282833809
-1.38975,-0.16472569877469173
-1.389375,-0.17477757690774054
-1.389,-0.18315414201861452
-1.388625,-0.18918526889844378
-1.38825,-0.19354108275609821
-1.387875,-0.19622158359157824
-1.3875,-0.19689170880044737
-1.3871250000000002,-0.19588652098714338
-1.3867500000000001,-0.19320602015166449
-1.3863750000000001,-0.18851514368957384
-1.3860000000000001,-0.18248401680974458
-1.3856250000000001,-0.17511263951217548
-1.3852500000000001,-0.16606594919243156
-1.3848750000000001,-0.15601407105938281
-1.3845000000000001,-0.14529206771746411
-1.384125,-0.13423500177111045
-1.38375,-0.12284287322032181
-1.383375,-0.11178580727396817
-1.383,-0.1007287413276145
-1.382625,-0.090006737985695806
-1.38225,-0.079954859852647026
-1.381875,-0.070908169532899301
-1.3815,-0.062531604422025766
-1.3811250000000002,-0.055160227124463383
-1.3807500000000001,-0.04979922545350312
-1.3803750000000001,-0.045778474200281166
-1.3800000000000001,-0.044103161178106365
-1.3796250000000001,-0.044103161178106365
-1.3792500000000001,-0.045778474200281166
-1.3788750000000001,-0.049464162849065713
-1.3785000000000001,-0.055160227124460032
-1.378125,-0.062531604422029125
-1.37775,-0.071578294741773046
-1.377375,-0.081965235479256771
-1.377,-0.093692426634480352
-1.376625,-0.10642480560300882
-1.37625,-0.11949224717597223
-1.375875,-0.13222462614450617
-1.3754999999999999,-0.14428687990416442
-1.3751250000000002,-0.15567900845494262
-1.3747500000000001,-0.16573088658799662
-1.3743750000000001,-0.17511263951217548
-1.3740000000000001,-0.18348920462304946
-1.3736250000000001,-0.19052551931618361
-1.3732500000000001,-0.19655664619601287
-1.3728750000000001,-0.20124752265810231
-1.3725000000000001,-0.20426308609801691
-1.372125,-0.2056033365157568
-1.37175,-0.2056033365157568
-1.371375,-0.20426308609801691
-1.371,-0.20158258526253725
-1.370625,-0.19756183400931776
-1.37025,-0.19253589494279064
-1.369875,-0.18650476806296057
-1.3695000000000002,-0.17879832816096353
-1.3691250000000001,-0.17008670044565508
-1.3687500000000001,-0.15969975970816735
-1.3683750000000001,-0.14864269376181366
-1.3680000000000001,-0.13691550260659013
-1.3676250000000001,-0.12485324884693158
-1.3672500000000001,-0.113126057691708
-1.3668750000000001,-0.10206899174535433
-1.3665,-0.091346988403435636
-1.366125,-0.081965235479256771
-1.36575,-0.07325360776394782
-1.365375,-0.065547167861943756
-1.365,-0.058845915773244578
-1.364625,-0.05348491410228523
-1.36425,-0.049464162849064491
-1.3638749999999999,-0.046783662013585747
-1.3635000000000002,-0.046113536804716443
-1.3631250000000001,-0.047118724618020538
-1.3627500000000001,-0.049799225453500684
-1.3623750000000001,-0.054155039311155145
-1.3620000000000001,-0.060186166190984408
-1.3616250000000001,-0.067557543488553529
-1.3612500000000001,-0.075934108599427508
-1.3608750000000001,-0.084980798919171402
-1.3605,-0.095032677052220182
-1.360125,-0.10575468039413888
-1.35975,-0.11681174634049254
-1.359375,-0.12820387489128116
-1.359,-0.13959600344206979
-1.358625,-0.15065306938842343
-1.35825,-0.16070494752147696
-1.3578749999999999,-0.17109188825896021
-1.3575000000000002,-0.18047364118313053
-1.3571250000000001,-0.18918526889844378
-1.3567500000000001,-0.19722677140488282
-1.3563750000000001,-0.20392802349358197
-1.3560000000000001,-0.20928902516454134
-1.3556250000000001,-0.21263965120889095
-1.3552500000000001,-0.21431496423106572
-1.3548750000000001,-0.21364483902219578
-1.3545,-0.21096433818671612
-1.354125,-0.20627346172462668
-1.35375,-0.19957220963592748
-1.353375,-0.19086058192061855
-1.353,-0.1804736411831348
-1.352625,-0.16841138742346987
-1.35225,-0.15433875803720082
-1.3518750000000002,-0.13859081562877207
-1.3515000000000001,-0.12150262280258975
-1.3511250000000001,-0.1040793673719641
-1.3507500000000001,-0.085650924128041317
-1.3503750000000001,-0.067892606092988472
-1.3500000000000001,-0.050469350662370599
-1.3496250000000001,-0.034721408253927499
-1.3492500000000001,-0.020313716263224257
-1.348875,-0.007581337294695803
-1.3485,0.0028056034427879351
-1.348125,0.010847105949226957
-1.34775,0.017213295433491191
-1.347375,0.021234046686710709
-1.347,0.023244422313320454
-1.346625,0.022909359708884278
-1.3462499999999999,0.020228858873403536
-1.3458750000000002,0.015202919806883718
-1.3455000000000001,0.0085016677181853004
-1.3451250000000001,-0.00020995999712669633
-1.3447500000000001,-0.010261838130175477
-1.3443750000000001,-0.022659154494268974
-1.3440000000000001,-0.036731783880537272
-1.3436250000000001,-0.052479726288980344
-1.3432500000000001,-0.06923285651072833
-1.342875,-0.086991174545781175
-1.3425,-0.10508455518526896
-1.342125,-0.12284287322032181
-1.34175,-0.13993106604650474
-1.341375,-0.15634913366381775
-1.341,-0.17075682565452099
-1.340625,-0.18348920462305418
-1.3402500000000002,-0.1938761453605285
-1.3398750000000001,-0.20158258526253375
-1.3395000000000001,-0.20627346172462668
-1.3391250000000001,-0.20895396256010634
-1.3387500000000001,-0.2086188999556714
-1.3383750000000001,-0.20593839912019174
-1.3380000000000001,-0.20057739744923236
-1.3376250000000001,-0.19320602015166327
-1.33725,-0.18348920462304946
-1.336875,-0.17209707607226082
-1.3365,-0.15902963449929741
-1.336125,-0.14495700511302911
-1.33575,-0.12987918791345596
-1.335375,-0.11446630810944783
-1.335,-0.098383303096562624
-1.334625,-0.08263536068811983
-1.3342500000000002,-0.067557543488560384
-1.3338750000000001,-0.0524797262889872
-1.3335000000000001,-0.038407096902712073
-1.3331250000000001,-0.025674717934183605
-1.3327500000000001,-0.013277401570090108
-1.3323750000000001,-0.0022203356237364552
-1.3320000000000001,0.0085016677181822542
-1.3316250000000001,0.018218483246796063
-1.33125,0.027265173566539971
-1.330875,0.035641738677413951
-1.3305,0.042342990766113142
-1.330125,0.048374117645942405
-1.32975,0.05272993150359688
-1.329375,0.055075369734641597
-1.329,0.055745494943511054
-1.3286249999999999,0.054740307130205265
-1.3282500000000002,0.051724743690293382
-1.3278750000000001,0.046028679414900277
-1.3275000000000001,0.037652114304023709
-1.3271250000000001,0.026595048357670056
-1.3267500000000001,0.013192544180271673
-1.3263750000000001,-0.0018852730193014977
-1.3260000000000001,-0.018638403241049456
-1.3256250000000001,-0.036396721276102301
-1.32525,-0.055160227124460032
-1.324875,-0.074593858181687678
-1.3245,-0.093357364030045381
-1.324125,-0.11212086987840311
-1.32375,-0.12987918791345596
-1.323375,-0.145962192926334
-1.323,-0.16003482231260779
-1.3226250000000002,-0.17209707607225533
-1.3222500000000001,-0.18181389160087022
-1.3218750000000001,-0.18885020629400878
-1.3215000000000001,-0.19354108275609821
-1.3211250000000001,-0.19521639577827304
-1.3207500000000001,-0.1948813331738381
-1.3203750000000001,-0.19220083233835838
-1.3200000000000001,-0.18683983066739906
-1.319625,-0.17980351597426492
-1.31925,-0.17109188825895594
-1.318875,-0.16070494752147224
-1.3185,-0.14897775636624866
-1.318125,-0.13624537739772019
-1.31775,-0.12250781061588686
-1.317375,-0.10877024383404696
-1.3169999999999999,-0.094362551843344175
-1.3166250000000002,-0.080960047665957977
-1.3162500000000001,-0.067892606092994412
-1.3158750000000001,-0.055495289728894975
-1.3155000000000001,-0.043768098573671421
-1.3151250000000001,-0.033381157836187669
-1.3147500000000001,-0.02500459272531369
-1.3143750000000001,-0.018638403241049456
-1.3140000000000001,-0.014617651987829938
-1.313625,-0.012942338965655165
-1.31325,-0.01361246417452508
-1.312875,-0.016963090218874655
-1.3125,-0.021653966680964087
-1.312125,-0.028690281374098237
-1.31175,-0.037736971693842131
-1.311375,-0.048458975035766343
-1.3109999999999999,-0.060521228795425472
-1.3106250000000002,-0.07392373297281167
-1.3102500000000001,-0.088331424963514454
-1.3098750000000001,-0.1040793673719641
-1.3095000000000001,-0.11982730978040718
-1.3091250000000001,-0.13591031479328525
-1.3087500000000001,-0.15098813199285838
-1.3083750000000001,-0.16472569877469173
-1.3080000000000001,-0.1774580777432202
-1.307625,-0.18885020629400878
-1.30725,-0.1978968966137527
-1.306875,-0.20593839912019174
-1.3065,-0.211969526000021
-1.306125,-0.21632533985767549
-1.30575,-0.21833571548428521
-1.305375,-0.21833571548428399
-1.3050000000000002,-0.21565521464880677
-1.3046250000000001,-0.21062927558228345
-1.3042500000000001,-0.20325789828471208
-1.3038750000000001,-0.19320602015166327
-1.3035000000000001,-0.1808087037875698
-1.3031250000000001,-0.1667360744013015
-1.3027500000000001,-0.15165825720172832
-1.3023750000000001,-0.13591031479328525
-1.302,-0.12016237238484215
-1.301625,-0.10474949258083402
-1.30125,-0.090006737985695806
-1.300875,-0.075599045994992536
-1.3005,-0.06186147921315921
-1.300125,-0.048794037640195798
-1.29975,-0.036731783880532089
-1.2993749999999999,-0.025339655329744061
-1.2990000000000002,-0.015287777196704424
-1.2986250000000001,-0.0062410868769600739
-1.2982500000000001,0.00079522781617817617
-1.2978750000000001,0.0061562294871375378
-1.2975000000000001,0.0095068555314871267
-1.2971250000000001,0.010847105949226957
-1.2967500000000001,0.010176980740357042
-1.2963750000000001,0.0074964799048773678
-1.296,0.0031406660472228926
-1.295625,-0.0022203356237364552
-1.29525,-0.0092566503168706044
-1.294875,-0.017968278032179541
-1.2945,-0.02768509356079335
-1.294125,-0.038742159507147017
-1.29375,-0.050469350662376233
-1.2933749999999999,-0.062866667026469883
-1.2930000000000001,-0.075599045994986749
-1.2926250000000001,-0.088331424963521005
-1.2922500000000001,-0.10039367872317953
-1.2918750000000001,-0.11212086987840311
-1.2915000000000001,-0.12351299842919172
-1.2911250000000001,-0.13389993916667547
-1.2907500000000001,-0.14395181729972423
-1.290375,-0.15333357022390309
-1.29,-0.16137507273034213
-1.289625,-0.16841138742347628
-1.28925,-0.17377238909443565
-1.288875,-0.17712301513878526
-1.2885,-0.17812820295209009
-1.288125,-0.1771230151387839
-1.28775,-0.17410745169886815
-1.2873750000000002,-0.16874645002791366
-1.2870000000000001,-0.16171013533478026
-1.2866250000000001,-0.15333357022390309
-1.2862500000000001,-0.14328169209085434
-1.2858750000000001,-0.13188956354006573
-1.2855000000000001,-0.11949224717597223
-1.2851250000000001,-0.10608974299857385
-1.2847500000000001,-0.092352176216740522
-1.284375,-0.078614609434907196
-1.284,-0.065212105257508812
-1.283625,-0.051809601080110429
-1.28325,-0.039412284716016932
-1.282875,-0.027350030956358407
-1.2825,-0.01629296501000474
-1.282125,-0.0062410868769516925
-1.2817499999999999,0.0031406660472265494
-1.2813750000000002,0.011182168553658271
-1.2810000000000001,0.01788342064235806
-1.2806250000000001,0.022909359708885496
-1.2802500000000001,0.025924923148800127
-1.2798750000000001,0.026930110962105014
-1.2795000000000001,0.025924923148800127
-1.2791250000000001,0.023579484917755411
-1.2787500000000001,0.018888608455665992
-1.278375,0.012187356366966801
-1.278,0.0041458538605277789
-1.277625,-0.0059060242725210016
-1.27725,-0.01763321542774457
-1.276875,-0.031035719605142953
-1.2765,-0.045443411595846195
-1.276125,-0.060186166190991416
-1.2757499999999999,-0.075599045994999392
-1.2753750000000001,-0.090676863194558865
-1.2750000000000001,-0.10541961778970393
-1.2746250000000001,-0.11915718457153726
-1.2742500000000001,-0.13222462614450067
-1.2738750000000001,-0.14395181729972423
-1.2735000000000001,-0.15400369543277304
-1.2731250000000001,-0.16238026054364701
-1.27275,-0.16908151263234622
-1.272375,-0.17343732649000065
-1.272,-0.17544770211661043
-1.271625,-0.17511263951217548
-1.27125,-0.17343732649000065
-1.270875,-0.17008670044565111
-1.2705,-0.16539582398355862
-1.2701249999999999,-0.15869457189485897
-1.2697500000000002,-0.15098813199286187
-1.2693750000000001,-0.14194144167311862
-1.2690000000000001,-0.13188956354006573
-1.2686250000000001,-0.12116756019814701
-1.2682500000000001,-0.1097754316473584
-1.2678750000000001,-0.098048240492134814
-1.2675000000000001,-0.085985986732476288
-1.2671250000000001,-0.074258795577252706
-1.26675,-0.062531604422029125
-1.266375,-0.05080441326680557
-1.266,-0.039747347320451903
-1.265625,-0.029360406582968152
-1.26525,-0.019643591054354342
-1.264875,-0.011267025943480363
-1.2645,-0.0038956486459083479
-1.2641249999999999,0.0024705408383552631
-1.2637500000000002,0.0074964799048750823
-1.2633750000000001,0.011182168553660252
-1.2630000000000001,0.013527606784706631
-1.2626250000000001,0.014532794598011517
-1.2622500000000001,0.013862669389141602
-1.2618750000000001,0.011517231158096886
-1.2615000000000001,0.0074964799048773678
-1.2611250000000001,0.0021354782339180201
-1.26075,-0.0049008364592161291
-1.260375,-0.012942338965655165
-1.26,-0.022324091889834002
-1.259625,-0.032040907418447839
-1.25925,-0.042762910760366535
-1.258875,-0.054490101915590117
-1.2585,-0.066217293070819028
-1.2581249999999999,-0.077944484226042429
-1.2577500000000001,-0.089336612776820715
-1.2573750000000001,-0.1007287413276145
-1.2570000000000001,-0.11111568206509823
-1.2566250000000001,-0.12049743498927709
-1.2562500000000001,-0.12820387489128116
-1.2558750000000001,-0.13389993916667547
-1.2555000000000001,-0.13825575302432996
-1.255125,-0.14060119125537468
-1.25475,-0.14127131646424457
-1.254375,-0.14026612865093968
-1.254,-0.13725056521102508
-1.253625,-0.13255968874893564
-1.25325,-0.12619349926467141
-1.252875,-0.11781693415379287
-1.2524999999999999,-0.10776505602074332
-1.2521250000000002,-0.096037864865530398
-1.2517500000000001,-0.082970423292567597
-1.2513750000000001,-0.06923285651072833
-1.2510000000000001,-0.05482516452002506
-1.2506250000000001,-0.040082409924886847
-1.2502500000000001,-0.026009780538618577
-1.2498750000000001,-0.011602088547915307
-1.2495000000000001,0.0018004156294830626
-1.249125,0.013862669389141602
-1.24875,0.025254797939930212
-1.248375,0.034971613468544036
-1.248,0.042007928161678185
-1.247625,0.04636374201933266
-1.24725,0.047368929832637532
-1.246875,0.046028679414896009
-1.2464999999999999,0.042342990766110096
-1.2461250000000001,0.035641738677416997
-1.2457500000000001,0.026930110962108976
-1.2453750000000001,0.016208107620186318
-1.2450000000000001,0.0038107912560928214
-1.2446250000000001,-0.0099267755257405055
-1.2442500000000001,-0.02500459272531369
-1.2438750000000001,-0.04075253513375679
-1.2435,-0.057505665355504748
-1.243125,-0.074593858181687678
-1.24275,-0.091682051007870607
-1.242375,-0.10810011862518359
-1.242,-0.12418312363806167
-1.241625,-0.13926094083763485
-1.24125,-0.15266344501503321
-1.240875,-0.16472569877469631
-1.2405000000000002,-0.17477757690773596
-1.2401250000000001,-0.18315414201861072
-1.2397500000000001,-0.18885020629400878
-1.2393750000000001,-0.19220083233835838
-1.2390000000000001,-0.19287095754722833
-1.2386250000000001,-0.1911956445250535
-1.2382500000000001,-0.18750995587626895
-1.2378750000000001,-0.18147882899643969
-1.2375,-0.17310226388556571
-1.237125,-0.16271532314808196
-1.23675,-0.15065306938842343
-1.236375,-0.13725056521102508
-1.236,-0.12284287322032181
-1.235625,-0.10742999341631368
-1.23525,-0.091346988403428475
-1.2348749999999999,-0.075599045994985223
-1.2345000000000002,-0.059516040982121807
-1.2341250000000001,-0.044438223782548192
-1.2337500000000001,-0.030365594396273038
-1.2333750000000001,-0.016963090218874655
-1.2330000000000001,-0.0052358990636510866
-1.2326250000000001,0.0054861042782676089
-1.2322500000000001,0.014532794598011517
-1.2318750000000001,0.021904171895580624
-1.2315,0.027600236170974929
-1.231125,0.031620987424194447
-1.23075,0.034301488259674121
-1.230375,0.035306676072978993
-1.23,0.034301488259674121
-1.229625,0.031956050028629404
-1.22925,0.027935298775406993
-1.2288749999999999,0.021569109291142009
-1.2285000000000001,0.013527606784710287
-1.2281250000000001,0.0028056034427928114
-1.2277500000000001,-0.0095917129213055619
-1.2273750000000001,-0.024334467516443775
-1.2270000000000001,-0.040082409924886847
-1.2266250000000001,-0.056500477542199862
-1.2262500000000001,-0.07325360776394782
-1.225875,-0.089336612776825891
-1.2255,-0.10575468039413888
-1.225125,-0.12083249759371206
-1.22475,-0.13457006437554542
-1.224375,-0.14730244334407383
-1.224,-0.15835950929042752
-1.223625,-0.16841138742347628
-1.2232499999999999,-0.17712301513878861
-1.2228750000000002,-0.18449439243635099
-1.2225000000000001,-0.19019045671174609
-1.2221250000000001,-0.19387614536053321
-1.2217500000000001,-0.19555145838270799
-1.2213750000000001,-0.1948813331738381
-1.2210000000000001,-0.19186576973392344
-1.2206250000000001,-0.18616970545852912
-1.2202500000000001,-0.17812820295209009
-1.219875,-0.16807632481904133
-1.2195,-0.15601407105938281
-1.219125,-0.14194144167311451
-1.21875,-0.12652856186910638
-1.218375,-0.11044555685622831
-1.218,-0.093692426634480352
-1.217625,-0.076939296412724623
-1.2172499999999999,-0.059851103586541846
-1.2168750000000002,-0.043097973364809097
-1.2165000000000001,-0.027350030956365567
-1.2161250000000001,-0.012272213756785222
-1.2157500000000001,0.0014653530250481051
-1.2153750000000001,0.013862669389141602
-1.2150000000000001,0.024919735335495255
-1.2146250000000001,0.034636550864109078
-1.2142500000000001,0.042342990766113142
-1.213875,0.049044242854812334
-1.2135,0.05373511931690176
-1.213125,0.056415620152381434
-1.21275,0.057420807965686313
-1.212375,0.056080557547946476
-1.212,0.053064994108031838
-1.211625,0.048374117645939206
-1.2112499999999999,0.041337802952804308
-1.2108750000000001,0.032626175237503281
-1.2105000000000001,0.022239234500020306
-1.2101250000000001,0.0098419181359220842
-1.2097500000000001,-0.0035605860414762852
-1.2093750000000001,-0.018303340636614512
-1.2090000000000001,-0.034386345649492556
-1.2086250000000001,-0.050469350662370599
-1.20825,-0.066552355675248642
-1.207875,-0.081965235479256771
-1.2075,-0.09637292746996004
-1.207125,-0.10944036904292345
-1.20675,-0.12049743498927709
-1.206375,-0.13021425051789093
-1.206,-0.13691550260659013
-1.2056249999999999,-0.14194144167311587
-1.2052500000000002,-0.14495700511302775
-1.2048750000000001,-0.14529206771746397
-1.2045000000000001,-0.14428687990415923
-1.2041250000000001,-0.14093625385980962
-1.2037500000000001,-0.13624537739772019
-1.2033750000000001,-0.13054931312232587
-1.2030000000000001,-0.12418312363806167
-1.2026250000000001,-0.11681174634049254
-1.20225,-0.10910530643848848
-1.201875,-0.10039367872317953
-1.2015,-0.091011925799000665
-1.201125,-0.081965235479256771
-1.20075,-0.072248419950642961
-1.200375,-0.062866667026464096
-1.2,-0.053819976706715934
-1.1996249999999999,-0.044438223782537221
-1.1992500000000001,-0.035391533462801529
-1.1988750000000001,-0.026344843143057635
-1.1985000000000001,-0.018303340636614512
-1.1981250000000001,-0.010596900734610448
-1.1977500000000001,-0.0042307112503462141
-1.1973750000000001,0.00079522781617817617
-1.1970000000000001,0.0038107912560928214
-1.196625,0.0061562294871375378
-1.19625,0.0068263546960074528
-1.195875,0.0061562294871375378
-1.1955,0.0038107912560928214
-1.195125,0.00012510260730826117
-1.19475,-0.0052358990636510866
-1.194375,-0.011937151152350278
-1.194,-0.020313716263228525
-1.1936249999999999,-0.029695469187407696
-1.1932500000000001,-0.039747347320447331
-1.1928750000000001,-0.051139475871240514
-1.1925000000000001,-0.062866667026464096
-1.1921250000000001,-0.074928920786122621
-1.1917500000000001,-0.087326237150216118
-1.1913750000000001,-0.099388490909874672
-1.1910000000000001,-0.1114507446695332
-1.190625,-0.12284287322032181
-1.19025,-0.13322981395780556
-1.189875,-0.14194144167311451
-1.1895,-0.14964788157511855
-1.189125,-0.15534394585051287
-1.18875,-0.15902963449929741
-1.188375,-0.16070494752147224
-1.1879999999999999,-0.15969975970816613
-1.1876250000000002,-0.15701925887268892
-1.1872500000000001,-0.15199331980616554
-1.1868750000000001,-0.14562713032189906
-1.1865000000000001,-0.13691550260659013
-1.1861250000000001,-0.12686362447354133
-1.1857500000000001,-0.11547149592275271
-1.1853750000000001,-0.10307417955865922
-1.1850000000000001,-0.089336612776825891
-1.184625,-0.075263983390557593
-1.18425,-0.060186166190984408
-1.183875,-0.04477328638697628
-1.1835,-0.029695469187403123
-1.183125,-0.015287777196699853
-1.18275,-0.0012151478104315688
-1.182375,0.011517231158102218
-1.1819999999999999,0.023244422313325176
-1.1816250000000001,0.033631363050799466
-1.1812500000000001,0.042007928161674375
-1.1808750000000001,0.048709180250377362
-1.1805000000000001,0.053400056712466802
-1.1801250000000001,0.055745494943511512
-1.1797500000000001,0.055410432339076554
-1.1793750000000001,0.053064994108031838
-1.179,0.048374117645942405
-1.178625,0.042342990766113142
-1.17825,0.034301488259674121
-1.177875,0.02424961012662534
-1.1775,0.012857481575836716
-1.177125,0.00046016521174321867
-1.17675,-0.013277401570090108
-1.1763749999999999,-0.0276850935607999
-1.1759999999999999,-0.042092785551503323
-1.1756250000000001,-0.05683554014662813
-1.1752500000000001,-0.070908169532903104
-1.1748750000000001,-0.084980798919171402
-1.1745000000000001,-0.098718365701004729
-1.1741250000000001,-0.11212086987840311
-1.1737500000000001,-0.12451818624249661
-1.1733750000000001,-0.13557525218885025
-1.173,-0.14462194250859417
-1.172625,-0.15165825720172832
-1.17225,-0.15634913366381775
-1.171875,-0.15869457189486247
-1.1715,-0.15969975970816735
-1.171125,-0.15835950929042752
-1.17075,-0.15500888324607565
-1.1703749999999999,-0.14998294417955049
-1.1700000000000002,-0.14328169209085739
-1.1696250000000001,-0.13423500177111455
-1.1692500000000001,-0.12384806103362669
-1.1688750000000001,-0.11245593248283808
-1.1685000000000001,-0.099723553514309615
-1.1681250000000001,-0.085650924128041317
-1.1677500000000001,-0.070908169532903104
-1.1673750000000001,-0.055830352333329947
-1.167,-0.04075253513375679
-1.166625,-0.026009780538618577
-1.16625,-0.011937151152350278
-1.165875,0.00079522781617817617
-1.1655,0.012857481575836716
-1.165125,0.023579484917755411
-1.16475,0.032626175237502823
-1.1643749999999999,0.040332615139505971
-1.1640000000000001,0.0460286794148951
-1.1636250000000001,0.050049430668115374
-1.1632500000000001,0.052059806294726965
-1.1628750000000001,0.052394868899161923
-1.1625000000000001,0.050719555876987121
-1.1621250000000001,0.047368929832637532
-1.1617500000000001,0.042007928161678185
-1.161375,0.034636550864109078
-1.161,0.025254797939930212
-1.160625,0.013862669389141602
-1.16025,0.00079522781617817617
-1.159875,-0.013947526778960023
-1.1595,-0.030030531791838067
-1.159125,-0.046783662013586053
-1.1587499999999999,-0.064206917444211545
-1.1583749999999999,-0.08096004766595935
-1.1580000000000001,-0.097378115283257433
-1.1576250000000001,-0.11279099508727303
-1.1572500000000001,-0.12585843666023644
-1.1568750000000001,-0.13725056521102508
-1.1565000000000001,-0.14663231813520394
-1.1561250000000001,-0.15333357022390309
-1.1557500000000001,-0.15768938408155758
-1.155375,-0.1600348223126023
-1.155,-0.1600348223126023
-1.154625,-0.15802444668599253
-1.15425,-0.15366863282833809
-1.153875,-0.14730244334407383
-1.1535,-0.13892587823319985
-1.153125,-0.12920906270458102
-1.1527499999999999,-0.11815199675822705
-1.1523750000000001,-0.10642480560301415
-1.1520000000000001,-0.093357364030051321
-1.1516250000000001,-0.079619797248212054
-1.1512500000000001,-0.065212105257508812
-1.1508750000000001,-0.050469350662370599
-1.1505000000000001,-0.035726596067232386
-1.1501250000000001,-0.020983841472094172
-1.14975,-0.0072462746902608455
-1.149375,0.0058211668827025664
-1.149,0.017548358037926148
-1.148625,0.027265173566539971
-1.14825,0.034971613468544036
-1.147875,0.040667677743938341
-1.1475,0.044018303788287944
-1.147125,0.045358554206027316
-1.1467499999999999,0.04435336639272168
-1.1463750000000001,0.041672865557244448
-1.1460000000000001,0.036981989095155925
-1.1456250000000001,0.03061579961088956
-1.1452500000000001,0.022909359708885496
-1.1448750000000001,0.013862669389141602
-1.1445000000000001,0.0038107912560928214
-1.1441250000000001,-0.007581337294695803
-1.14375,-0.019978653658789286
-1.143375,-0.033046095231752698
-1.143,-0.045778474200281166
-1.142625,-0.058510853168809634
-1.14225,-0.070238044324033189
-1.141875,-0.081630172874821827
-1.1415,-0.092352176216740522
-1.1411249999999999,-0.10273911695422851
-1.1407499999999999,-0.11212086987840707
-1.1403750000000001,-0.12083249759370809
-1.1400000000000001,-0.12820387489128116
-1.1396250000000001,-0.13389993916667547
-1.1392500000000001,-0.13825575302432996
-1.1388750000000001,-0.14060119125537468
-1.1385000000000001,-0.14093625385980962
-1.1381250000000001,-0.13959600344206979
-1.13775,-0.13658044000215513
-1.137375,-0.13222462614450067
-1.137,-0.12686362447354133
-1.136625,-0.12150262280258198
-1.13625,-0.11513643331831774
-1.135875,-0.10843518122961857
-1.1355,-0.10072874132761055
-1.1351249999999999,-0.092017113612301596
-1.1347500000000001,-0.08330548589700057
-1.1343750000000001,-0.074258795577256814
-1.1340000000000001,-0.065212105257508812
-1.1336250000000001,-0.055830352333329947
-1.1332500000000001,-0.046783662013586053
-1.1328750000000001,-0.038072034298277102
-1.1325000000000001,-0.030030531791838067
-1.132125,-0.022324091889834002
-1.13175,-0.015622839801134825
-1.131375,-0.0095917129213055619
-1.131,-0.0049008364592161291
-1.130625,-0.0018852730193014977
-1.13025,-0.00020995999712669633
-1.129875,-0.00020995999712669633
-1.1294999999999999,-0.0022203356237381314
-1.1291249999999999,-0.0059060242725234397
-1.1287500000000001,-0.011267025943477924
-1.1283750000000001,-0.017968278032176495
-1.1280000000000001,-0.026679905747488492
-1.1276250000000001,-0.036731783880537272
-1.1272500000000001,-0.047788849826890911
-1.1268750000000001,-0.059516040982114493
-1.1265000000000001,-0.07191335734620799
-1.126125,-0.083975611105866543
-1.12575,-0.095702802261090097
-1.125375,-0.10675986820744376
-1.125,-0.11714680894492752
-1.124625,-0.12686362447354133
-1.12425,-0.13557525218885025
-1.123875,-0.14328169209085434
-1.1234999999999999,-0.14931281897068588
-1.1231250000000002,-0.1543387580372057
-1.1227500000000001,-0.15735432147712128
-1.1223750000000001,-0.15835950929042752
-1.1220000000000001,-0.15768938408155758
-1.1216250000000001,-0.15500888324607792
-1.1212500000000001,-0.15065306938842343
-1.1208750000000001,-0.14395181729972423
-1.1205000000000001,-0.13624537739772019
-1.120125,-0.12686362447354133
-1.11975,-0.11681174634049254
-1.119375,-0.10575468039413888
-1.119,-0.094362551843350267
-1.118625,-0.082970423292561657
-1.11825,-0.071578294741773046
-1.117875,-0.059516040982109157
-1.1174999999999999,-0.047788849826885575
-1.1171250000000001,-0.036061658671672686
-1.1167500000000001,-0.025004592725318721
-1.1163750000000001,-0.014282589383394995
-1.1160000000000001,-0.0042307112503462141
-1.1156250000000001,0.0048159790693976939
-1.1152500000000001,0.013192544180271673
-1.1148750000000001,0.020228858873405822
-1.1145,0.026259985753235099
-1.114125,0.031285924819759489
-1.11375,0.034636550864109078
-1.113375,0.035641738677413951
-1.113,0.035306676072978993
-1.112625,0.032626175237499319
-1.11225,0.028605423984279801
-1.1118749999999999,0.023244422313317255
-1.1114999999999999,0.016208107620182662
-1.1111250000000001,0.0081666051137509396
-1.1107500000000001,-0.00088008520599249657
-1.1103750000000001,-0.010931963339045392
-1.1100000000000001,-0.021989029285399059
-1.1096250000000001,-0.034051283045057584
-1.1092500000000001,-0.046448599409151081
-1.1088750000000001,-0.059851103586549464
-1.1085,-0.072918545159512876
-1.108125,-0.085985986732476288
-1.10775,-0.098718365701004729
-1.107375,-0.11078061946066328
-1.107,-0.12183768540701695
-1.106625,-0.13155450093563076
-1.10625,-0.14026612865093968
-1.1058749999999999,-0.14763750594851158
-1.1055000000000001,-0.15366863282833534
-1.1051250000000001,-0.15735432147712097
-1.1047500000000001,-0.15936469710373241
-1.1043750000000001,-0.15902963449929741
-1.1040000000000001,-0.1566841962682527
-1.1036250000000001,-0.15199331980616326
-1.1032500000000001,-0.14495700511302911
-1.102875,-0.13557525218885025
-1.1025,-0.12485324884693158
-1.102125,-0.11212086987840311
-1.10175,-0.098383303096569785
-1.101375,-0.083640548501431572
-1.101,-0.068227668697423444
-1.100625,-0.0521446636845454
-1.10025,-0.035726596067224767
-1.0998749999999999,-0.018973465845476961
-1.0995000000000001,-0.002555398228178879
-1.0991250000000001,0.013527606784699317
-1.0987500000000001,0.028270361379844844
-1.0983750000000001,0.041672865557243227
-1.0980000000000001,0.05272993150359688
-1.0976250000000001,0.061441559218905824
-1.0972500000000001,0.067472686098735093
-1.096875,0.071158374747519654
-1.0965,0.072163562560824512
-1.096125,0.070823312143084682
-1.09575,0.067137623494300136
-1.095375,0.061106496614470866
-1.095,0.053064994108031838
-1.094625,0.043348178579418015
-1.0942499999999999,0.032291112633058727
-1.0938749999999999,0.019893796268964769
-1.0935000000000001,0.0064912920915785894
-1.0931250000000001,-0.0079163998991242084
-1.0927500000000001,-0.022994217098703917
-1.0923750000000001,-0.037736971693842131
-1.0920000000000001,-0.0521446636845454
-1.0916250000000001,-0.065882230466378727
-1.0912500000000001,-0.077944484226037253
-1.090875,-0.088331424963521005
-1.0905,-0.097378115283264899
-1.090125,-0.10474949258083402
-1.08975,-0.11044555685622831
-1.089375,-0.11446630810944783
-1.089,-0.1164766837360576
-1.088625,-0.11714680894492752
-1.0882499999999999,-0.11647668373605638
-1.0878750000000001,-0.11379618290057913
-1.0875000000000001,-0.11011049425179505
-1.0871250000000001,-0.10474949258083402
-1.0867500000000001,-0.098383303096569785
-1.0863750000000001,-0.091011925799000665
-1.0860000000000001,-0.083305485896996601
-1.0856250000000001,-0.074593858181687678
-1.08525,-0.065547167861943756
-1.084875,-0.055830352333329947
-1.0845,-0.045778474200281166
-1.084125,-0.036061658671667357
-1.08375,-0.027014968351923435
-1.083375,-0.018973465845484427
-1.083,-0.011602088547915307
-1.0826249999999999,-0.0055709616680839113
-1.0822499999999999,-0.00088008520599493526
-1.0818750000000001,0.0028056034427862589
-1.0815000000000001,0.0051510416738315846
-1.0811250000000001,0.0061562294871375378
-1.0807500000000001,0.0054861042782676089
-1.0803750000000001,0.0031406660472228926
-1.0800000000000001,-0.00054502260156165383
-1.0796250000000001,-0.0055709616680860441
-1.07925,-0.012272213756785222
-1.078875,-0.019643591054354342
-1.0785,-0.028355218769663293
-1.078125,-0.037736971693842131
-1.07775,-0.047788849826890911
-1.077375,-0.058175790564374663
-1.077,-0.06923285651072833
-1.0766249999999999,-0.080624985061522117
-1.0762499999999999,-0.09201711361231088
-1.0758750000000001,-0.1037443047675238
-1.0755000000000001,-0.1148013707138828
-1.0751250000000001,-0.12518831145136652
-1.0747500000000001,-0.13457006437554542
-1.0743750000000001,-0.1426115668819844
-1.0740000000000001,-0.14964788157511855
-1.0736250000000001,-0.15500888324607792
-1.07325,-0.15902963449929741
-1.072875,-0.16204519793921207
-1.0725,-0.16405557356582179
-1.072125,-0.16439063617025679
-1.07175,-0.1633854483569519
-1.071375,-0.16036988491703724
-1.071,-0.15601407105938023
-1.0706249999999999,-0.15031800678398483
-1.0702500000000001,-0.14227650427755312
-1.0698750000000001,-0.13289475135337486
-1.0695000000000001,-0.12183768540701695
-1.0691250000000001,-0.10910530643848848
-1.0687500000000001,-0.094697614447785239
-1.0683750000000001,-0.079284734643777111
-1.0680000000000001,-0.063536792235334011
-1.067625,-0.047788849826890911
-1.06725,-0.032375970022882783
-1.066875,-0.01763321542774457
-1.0665,-0.0042307112503462141
-1.066125,0.0074964799048773678
-1.06575,0.017883420642361106
-1.065375,0.026595048357670056
-1.0649999999999999,0.033966425655241599
-1.0646249999999999,0.03932742732620019
-1.0642500000000001,0.043013115974981378
-1.0638750000000001,0.0450234916015919
-1.0635000000000001,0.045023491601592816
-1.0631250000000001,0.043348178579418015
-1.0627500000000001,0.039662489930633468
-1.0623750000000001,0.034301488259674121
-1.0620000000000001,0.027265173566539971
-1.061625,0.018553545851231021
-1.06125,0.0078315425093123253
-1.060875,-0.0038956486459112427
-1.0605,-0.017298152823309626
-1.060125,-0.031705844814012868
-1.05975,-0.046113536804716138
-1.059375,-0.060856291399854323
-1.0589999999999999,-0.075263983390564143
-1.0586249999999999,-0.089671675381267232
-1.0582500000000001,-0.10374430476752274
-1.0578750000000001,-0.11714680894492752
-1.0575000000000001,-0.12954412530902101
-1.0571250000000001,-0.14127131646424457
-1.0567500000000001,-0.15132319459729338
-1.0563750000000001,-0.15969975970816735
-1.056,-0.16606594919243156
-1.055625,-0.17075682565452099
-1.05525,-0.17243213867669582
-1.054875,-0.17142695086339094
-1.0545,-0.16807632481904133
-1.054125,-0.16271532314808196
-1.05375,-0.15534394585051287
-1.053375,-0.14696738073963461
-1.0529999999999999,-0.13758562781545514
-1.0526250000000001,-0.12686362447354621
-1.0522500000000001,-0.11547149592275789
-1.0518750000000001,-0.1040793673719641
-1.0515000000000001,-0.091346988403435636
-1.0511250000000001,-0.077944484226037253
-1.0507500000000001,-0.064541980048638897
-1.0503750000000001,-0.05080441326680557
-1.05,-0.037736971693842131
-1.049625,-0.024669530120878719
-1.04925,-0.011937151152350278
-1.048875,-0.0012151478104315688
-1.0485,0.0085016677181822542
-1.048125,0.016208107620186318
-1.04775,0.022239234500015581
-1.0473749999999999,0.026259985753236164
-1.0469999999999999,0.028605423984280107
-1.0466250000000001,0.029275549193149425
-1.0462500000000001,0.028270361379845302
-1.0458750000000001,0.02558986054436517
-1.0455000000000001,0.021569109291145666
-1.0451250000000001,0.015873045015751347
-1.0447500000000001,0.0088367303226172117
-1.0443750000000001,0.00046016521174321867
-1.044,-0.0095917129213055619
-1.043625,-0.020648778867659229
-1.04325,-0.032711032627317754
-1.042875,-0.045443411595846195
-1.0425,-0.058510853168809634
-1.042125,-0.071578294741773046
-1.04175,-0.084310673710301487
-1.0413749999999999,-0.096037864865530093
-1.0409999999999999,-0.1070949308118833
-1.0406250000000001,-0.11714680894492295
-1.0402500000000001,-0.12585843666023644
-1.0398750000000001,-0.13255968874893564
-1.0395000000000001,-0.13725056521102508
-1.0391250000000001,-0.14026612865093968
-1.0387500000000001,-0.14127131646424457
-1.038375,-0.13993106604650474
-1.038,-0.13725056521102508
-1.037625,-0.13289475135337059
-1.03725,-0.12686362447354133
-1.036875,-0.11915718457153726
-1.0365,-0.10944036904292345
-1.036125,-0.098718365701004729
-1.0357499999999999,-0.08632104933690532
-1.0353749999999999,-0.07325360776394127
-1.0350000000000001,-0.058845915773251128
-1.0346250000000001,-0.043768098573678277
-1.0342500000000001,-0.028690281374098237
-1.0338750000000001,-0.013947526778960023
-1.0335000000000001,0.00046016521174321867
-1.0331250000000001,0.013527606784706631
-1.0327500000000001,0.025254797939930212
-1.032375,0.036311863886283879
-1.032,0.04636374201933266
-1.031625,0.054405244525771675
-1.03125,0.060771434010035902
-1.030875,0.06479218526325542
-1.0305,0.067137623494300136
-1.030125,0.067137623494300136
-1.0297499999999999,0.064792185263253588
-1.0293749999999999,0.060771434010033161
-1.0290000000000001,0.05474030713020938
-1.0286250000000001,0.047368929832640884
-1.0282500000000001,0.038322239512893624
-1.0278750000000001,0.027935298775409886
-1.0275000000000001,0.016543170224621276
-1.0271250000000001,0.0044809164649627364
-1.0267500000000001,-0.0085865251080006755
-1.026375,-0.022324091889834002
-1.026,-0.036396721276102301
-1.025625,-0.051139475871240514
-1.02525,-0.065882230466378727
-1.024875,-0.080289922457081969
-1.0245,-0.093692426634480352
-1.024125,-0.10709493081187874
-1.0237499999999999,-0.11949224717597726
-1.0233750000000001,-0.13054931312232085
-1.0230000000000001,-0.13993106604650046
-1.0226250000000001,-0.14730244334407383
-1.0222500000000001,-0.15232838241059826
-1.0218750000000001,-0.15467382064164298
-1.0215000000000001,-0.15467382064164298
-1.0211250000000001,-0.15232838241059826
-1.02075,-0.14763750594850883
-1.020375,-0.14026612865093968
-1.02,-0.13121943833119579
-1.019625,-0.11982730978040718
-1.01925,-0.10709493081187874
-1.018875,-0.093022301425610437
-1.0185,-0.077609421621602309
-1.0181249999999999,-0.061526416608716952
-1.0177499999999999,-0.045443411595838576
-1.0173750000000001,-0.028690281374105855
-1.0170000000000001,-0.012607276361227507
-1.0166250000000001,0.0028056034427879351
-1.0162500000000001,0.017213295433491191
-1.0158750000000001,0.03061579961088956
-1.0155000000000001,0.042342990766113142
-1.0151250000000001,0.052059806294726965
-1.01475,0.059766246196731029
-1.014375,0.06479218526325542
-1.014,0.067137623494300136
-1.013625,0.066802560889865165
-1.01325,0.064122060054385505
-1.012875,0.05876105838342615
-1.0125,0.051389681085857036
-1.0121249999999999,0.042007928161673001
-1.0117499999999999,0.03061579961088377
-1.0113750000000001,0.017883420642366896
-1.0110000000000001,0.003475728651664416
-1.0106250000000001,-0.011602088547915307
-1.0102500000000001,-0.027014968351923435
-1.0098750000000001,-0.042762910760366535
-1.0095000000000001,-0.058510853168809634
-1.009125,-0.07325360776394782
-1.00875,-0.087326237150216118
-1.008375,-0.1007287413276145
-1.008,-0.11279099508727303
-1.007625,-0.12317793582475678
-1.00725,-0.13255968874893564
-1.006875,-0.14026612865093968
-1.0065,-0.14629725553076894
-1.0061249999999999,-0.15065306938842435
-1.0057500000000001,-0.15266344501503229
-1.0053750000000001,-0.15266344501503321
-1.0050000000000001,-0.15098813199285838
-1.0046250000000001,-0.14696738073963889
-1.0042500000000001,-0.14060119125537468
-1.0038750000000001,-0.13289475135337059
-1.0035000000000001,-0.12317793582475678
-1.003125,-0.1114507446695332
-1.00275,-0.098048240492134814
-1.002375,-0.083305485896996601
-1.002,-0.067892606092988472
-1.001625,-0.051139475871240514
-1.0012500000000002,-0.034051283045065356
-1.0008750000000002,-0.017298152823317245
-1.0005000000000002,-0.00088008520600407758
-1.0001250000000002,0.015202919806874118
-0.99975000000000003,0.029945674402019645
-0.99937500000000001,0.043348178579418015
-0.999,0.055745494943511512
-0.99862499999999998,0.066467498285430221
-0.99825000000000008,0.075514188605174115
-0.99787500000000007,0.082885565902743222
-0.99750000000000005,0.088916692782572498
-0.99712500000000004,0.09327250664022696
-0.99675000000000002,0.095953007475706634
-0.99637500000000001,0.096623132684576563
-0.996,0.095617944871271676
-0.99562499999999998,0.09193225622248713
-0.99525000000000008,0.086906317155962726
-0.99487500000000006,0.080540127671698505
-0.99450000000000005,0.072833687769694441
-0.99412500000000004,0.064457122658820448
-0.99375000000000002,0.055410432339076554
-0.99337500000000001,0.045693616810462731
-0.99299999999999999,0.035641738677413951
-0.99262499999999998,0.02558986054436517
-0.99225000000000008,0.015537982411316389
-0.99187500000000006,0.0054861042782676089
-0.99150000000000005,-0.0045657738547811716
-0.99112500000000003,-0.014282589383394995
-0.99075000000000002,-0.02366434230757386
-0.99037500000000001,-0.032040907418447839
-0.98999999999999999,-0.039747347320451903
-0.98962500000000009,-0.046448599409151081
-0.98925000000000007,-0.051809601080110429
-0.98887500000000006,-0.056165414937764918
-0.98850000000000005,-0.058845915773244578
-0.98812500000000003,-0.059851103586549464
-0.98775000000000002,-0.059180978377679549
-0.987375,-0.056500477542199862
-0.98699999999999999,-0.052479726288980344
-0.98662500000000009,-0.046448599409151081
-0.98625000000000007,-0.039077222111581988
-0.98587500000000006,-0.029695469187403123
-0.98550000000000004,-0.019308528449919371
-0.98512500000000003,-0.007581337294695803
-0.98475000000000001,0.0048159790693976939
-0.984375,0.017548358037926148
-0.98399999999999999,0.030280737006454603
-0.98362500000000008,0.043013115974983057
-0.98325000000000007,0.055075369734641597
-0.98287500000000005,0.066467498285430221
-0.98250000000000004,0.077189501627348917
-0.98212500000000003,0.086236191947092811
-0.98175000000000001,0.094612757057966804
-0.981375,0.10097894654223102
-0.98099999999999998,0.10466463519101558
-0.98062500000000008,0.10734513602649526
-0.98025000000000007,0.10734513602649526
-0.97987500000000005,0.10600488560875541
-0.97950000000000004,0.10231919695997087
-0.97912500000000002,0.096958195289011506
-0.97875000000000001,0.089921880595877371
-0.97837499999999999,0.081545315485003378
-0.97799999999999998,0.071828499956389569
-0.97762500000000008,0.061106496614470866
-0.97725000000000006,0.049379305459247291
-0.97687500000000005,0.036311863886283879
-0.97650000000000003,0.023244422313320454
-0.97612500000000002,0.0091717929270521692
-0.97575000000000001,-0.0049008364592161291
-0.97537499999999999,-0.018638403241049456
-0.97499999999999998,-0.032040907418447839
-0.97462500000000007,-0.04477328638697628
-0.97425000000000006,-0.057170602751069777
-0.97387500000000005,-0.068227668697423444
-0.97350000000000003,-0.078614609434907196
-0.97312500000000002,-0.087996362359086033
-0.97275,-0.09637292746996004
-0.97237499999999999,-0.10340924216309416
-0.97200000000000009,-0.10877024383405351
-0.97162500000000007,-0.11212086987840311
-0.97125000000000006,-0.11346112029614294
-0.97087500000000004,-0.11212086987840311
-0.97050000000000003,-0.10810011862518359
-0.97012500000000002,-0.10106380393204945
-0.96975,-0.092017113612305551
-0.96937499999999999,-0.080960047665951884
-0.96900000000000008,-0.068562731301858415
-0.96862500000000007,-0.055495289728894975
-0.96825000000000006,-0.041422660342626705
-0.96787500000000004,-0.02768509356079335
-0.96750000000000003,-0.014617651987829938
-0.96712500000000001,-0.0022203356237364552
-0.96675,0.0091717929270521692
-0.96637499999999998,0.01922367106010095
-0.96600000000000008,0.027600236170974929
-0.96562500000000007,0.034301488259674121
-0.96525000000000005,0.039327427326198511
-0.96487500000000004,0.043013115974983057
-0.96450000000000002,0.045358554206027774
-0.96412500000000001,0.047033867228202575
-0.96375,0.046698804623767617
-0.96337499999999998,0.044688428997157859
-0.96300000000000008,0.040667677743938341
-0.96262500000000006,0.035306676072978993
-0.96225000000000005,0.027935298775409886
-0.96187500000000004,0.018888608455665992
-0.96150000000000002,0.0095068555314871267
-0.96112500000000001,-0.0012151478104315688
-0.96074999999999999,-0.011937151152350278
-0.96037499999999998,-0.023329279703138889
-0.96000000000000008,-0.034386345649492556
-0.95962500000000006,-0.045443411595846195
-0.95925000000000005,-0.056500477542199862
-0.95887500000000003,-0.067222480884118557
-0.95850000000000002,-0.077274359017167338
-0.958125,-0.08766129975465109
-0.95774999999999999,-0.097043052678829955
-0.95737499999999998,-0.10575468039413888
-0.95700000000000007,-0.11446630810944783
-0.95662500000000006,-0.12183768540701695
-0.95625000000000004,-0.12753374968241124
-0.95587500000000003,-0.13222462614450067
-0.95550000000000002,-0.13591031479328525
-0.955125,-0.13792069041989496
-0.95474999999999999,-0.13825575302432996
-0.95437500000000008,-0.13725056521102508
-0.95400000000000007,-0.13423500177111045
-0.95362500000000006,-0.12887400010015107
-0.95325000000000004,-0.12150262280258198
-0.95287500000000003,-0.11245593248283808
-0.95250000000000001,-0.10139886653648442
-0.952125,-0.089336612776825891
-0.95174999999999998,-0.077274359017167338
-0.95137500000000008,-0.064877042653073841
-0.95100000000000007,-0.053149851497850259
-0.95062500000000005,-0.04209278555149662
-0.95025000000000004,-0.032040907418447839
-0.94987500000000002,-0.022324091889834002
-0.94950000000000001,-0.013277401570090108
-0.949125,-0.0049008364592161291
-0.94874999999999998,0.0031406660472228926
-0.94837500000000008,0.0098419181359220842
-0.94800000000000006,0.014867857202446474
-0.94762500000000005,0.018553545851231021
-0.94725000000000004,0.02056392147784078
-0.94687500000000002,0.020898984082275737
-0.94650000000000001,0.01922367106010095
-0.94612499999999999,0.016208107620186318
-0.94574999999999998,0.010847105949226957
-0.94537500000000008,0.0038107912560928214
-0.94500000000000006,-0.0045657738547811716
-0.94462500000000005,-0.014617651987829938
-0.94425000000000003,-0.025339655329748634
-0.94387500000000002,-0.037066846484972216
-0.94350000000000001,-0.049464162849065713
-0.94312499999999999,-0.06186147921315921
-0.94274999999999998,-0.074258795577252706
-0.94237500000000007,-0.086656111941346203
-0.94200000000000006,-0.098383303096569785
-0.94162500000000005,-0.1097754316473584
-0.94125000000000003,-0.12083249759371206
-0.94087500000000002,-0.13121943833119579
-0.9405,-0.14160637906867957
-0.94012499999999999,-0.15098813199285838
-0.93975000000000009,-0.15969975970816735
-0.93937500000000007,-0.16707113700573645
-0.93900000000000006,-0.17343732649000065
-0.93862500000000004,-0.17779314034765514
-0.93825000000000003,-0.1804736411831348
-0.93787500000000001,-0.18147882899643969
-0.9375,-0.1808087037875698
-0.93712499999999999,-0.17812820295209009
-0.93675000000000008,-0.1741074516988706
-0.93637500000000007,-0.16807632481904133
-0.93600000000000005,-0.16070494752147224
-0.93562500000000004,-0.15232838241059826
-0.93525000000000003,-0.1426115668819844
-0.93487500000000001,-0.13155450093563076
-0.9345,-0.12049743498927709
-0.93412499999999998,-0.10877024383405351
-0.93375000000000008,-0.096707990074394984
-0.93337500000000007,-0.085315861523606373
-0.93300000000000005,-0.074258795577252706
-0.93262500000000004,-0.063871854839768982
-0.93225000000000002,-0.054155039311155145
-0.93187500000000001,-0.045778474200281166
-0.93149999999999999,-0.038742159507147017
-0.93112499999999998,-0.033046095231752698
-0.93075000000000008,-0.029695469187403123
-0.93037500000000006,-0.028020156165228322
-0.93000000000000005,-0.028355218769663293
-0.92962500000000003,-0.030700657000708009
-0.92925000000000002,-0.034721408253927499
-0.92887500000000001,-0.040417472529321818
-0.92849999999999999,-0.047453787222455968
-0.92812499999999998,-0.055830352333329947
-0.92775000000000007,-0.065547167861943756
-0.92737500000000006,-0.076269171203862479
-0.92700000000000005,-0.08766129975465109
-0.92662500000000003,-0.10005861611874459
-0.92625000000000002,-0.113126057691708
-0.925875,-0.12585843666023644
-0.92549999999999999,-0.13825575302432996
-0.92512499999999998,-0.15031800678398849
-0.92475000000000007,-0.16070494752147224
-0.92437500000000006,-0.17075682565452099
-0.92400000000000004,-0.17946845336982997
-0.92362500000000003,-0.18717489327183401
-0.92325000000000002,-0.19354108275609821
-0.922875,-0.19823195921818765
-0.92249999999999999,-0.20158258526253725
-0.92212500000000008,-0.20325789828471208
-0.92175000000000007,-0.20225271047140719
-0.92137500000000006,-0.19957220963592748
-0.92100000000000004,-0.19421120796496816
-0.92062500000000003,-0.18717489327183401
-0.92025000000000001,-0.17779314034765514
-0.919875,-0.1667360744013015
-0.91949999999999998,-0.15366863282833809
-0.91912500000000008,-0.13959600344206979
-0.91875000000000007,-0.12418312363806167
-0.91837500000000005,-0.10843518122961857
-0.91800000000000004,-0.092352176216740522
-0.91762500000000002,-0.076604233808297423
-0.91725000000000001,-0.061191354004289294
-0.916875,-0.046113536804716138
-0.91649999999999998,-0.032375970022882783
-0.91612500000000008,-0.019643591054354342
-0.91575000000000006,-0.0079163998991307605
-0.91537500000000005,0.0024705408383529776
-0.91500000000000004,0.011517231158096886
-0.91462500000000002,0.01922367106010095
-0.91425000000000001,0.02558986054436517
-0.91387499999999999,0.03061579961088956
-0.91349999999999998,0.033631363050804192
-0.91312500000000008,0.035306676072978993
-0.91275000000000006,0.034971613468544036
-0.91237500000000005,0.032626175237499319
-0.91200000000000003,0.028605423984279801
-0.91162500000000002,0.022909359708885496
-0.91125,0.015873045015751347
-0.91087499999999999,0.0085016677181822542
-0.91049999999999998,0.00012510260730826117
-0.91012500000000007,-0.0085865251080006755
-0.90975000000000006,-0.01763321542774457
-0.90937500000000004,-0.02634484314305352
-0.90900000000000003,-0.034721408253927499
-0.90862500000000002,-0.04209278555149662
-0.90825,-0.048794037640195798
-0.90787499999999999,-0.054490101915590117
-0.90749999999999997,-0.059516040982114493
-0.90712500000000007,-0.063871854839768982
-0.90675000000000006,-0.068227668697423444
-0.90637500000000004,-0.071578294741773046
-0.90600000000000003,-0.074928920786122621
-0.90562500000000001,-0.077944484226037253
-0.90525,-0.080624985061516941
-0.90487499999999998,-0.083640548501431572
-0.90450000000000008,-0.085985986732476288
-0.90412500000000007,-0.087326237150216118
-0.90375000000000005,-0.086991174545781175
-0.90337500000000004,-0.084980798919171402
-0.90300000000000002,-0.081295110270386856
-0.90262500000000001,-0.076269171203862479
-0.90225,-0.069902981719598245
-0.90187499999999998,-0.062531604422029125
-0.90150000000000008,-0.054155039311155145
-0.90112500000000006,-0.045108348991411251
-0.90075000000000005,-0.035726596067232386
-0.90037500000000004,-0.026679905747488492
-0.90000000000000002,-0.01763321542774457
-0.89962500000000001,-0.008921587712435633
-0.89924999999999999,-0.00054502260156165383
-0.89887499999999998,0.0071614173004424103
-0.89850000000000008,0.013862669389141602
-0.89812500000000006,0.018888608455665992
-0.89775000000000005,0.022239234500015581
-0.89737500000000003,0.023579484917755411
-0.89700000000000002,0.022574297104450539
-0.89662500000000001,0.019558733664535907
-0.89624999999999999,0.014532794598011517
-0.89587499999999998,0.0074964799048773678
-0.89550000000000007,-0.0012151478104315688
-0.89512500000000006,-0.011602088547915307
-0.89475000000000005,-0.023329279703138889
-0.89437500000000003,-0.036061658671667357
-0.89400000000000002,-0.049464162849065713
-0.893625,-0.062866667026464096
-0.89324999999999999,-0.076269171203862479
-0.89287499999999997,-0.089671675381260835
-0.89250000000000007,-0.10273911695422425
-0.89212500000000006,-0.1148013707138828
-0.89175000000000004,-0.12619349926467141
-0.89137500000000003,-0.13591031479328525
-0.89100000000000001,-0.14495700511302911
-0.890625,-0.15266344501503321
-0.89024999999999999,-0.15869457189486247
-0.88987500000000008,-0.1633854483569519
-0.88950000000000007,-0.1664010117968665
-0.88912500000000005,-0.16807632481904133
-0.88875000000000004,-0.16841138742347628
-0.88837500000000003,-0.16774126221460639
-0.88800000000000001,-0.16539582398356167
-0.887625,-0.16204519793921207
-0.88724999999999998,-0.1566841962682527
-0.88687500000000008,-0.14964788157511855
-0.88650000000000007,-0.14093625385980962
-0.88612500000000005,-0.13021425051789093
-0.88575000000000004,-0.11815199675823237
-0.88537500000000002,-0.10541961778970393
-0.88500000000000001,-0.091682051007870607
-0.88462499999999999,-0.077944484226037253
-0.88424999999999998,-0.064206917444203926
-0.88387500000000008,-0.05080441326680557
-0.88350000000000006,-0.037736971693842131
-0.88312500000000005,-0.025339655329748634
-0.88275000000000003,-0.013947526778960023
-0.88237500000000002,-0.0038956486459112427
-0.88200000000000001,0.0048159790693976939
-0.88162499999999999,0.012187356366966801
-0.88124999999999998,0.017213295433491191
-0.88087500000000007,0.02056392147784078
-0.88050000000000006,0.021904171895580624
-0.88012500000000005,0.020898984082275737
-0.87975000000000003,0.017213295433491191
-0.87937500000000002,0.011182168553661928
-0.879,0.0034757286516578639
-0.87862499999999999,-0.0055709616680860441
-0.87824999999999998,-0.015957902405569796
-0.87787500000000007,-0.027014968351923435
-0.87750000000000006,-0.038742159507147017
-0.87712500000000004,-0.051139475871240514
-0.87675000000000003,-0.064877042653073841
-0.87637500000000002,-0.079284734643777111
-0.876,-0.094362551843350267
-0.87562499999999999,-0.1097754316473584
-0.87524999999999997,-0.12518831145136652
-0.87487500000000007,-0.13993106604650474
-0.87450000000000006,-0.15366863282833809
-0.87412500000000004,-0.16606594919243156
-0.87375000000000003,-0.17678795253435026
-0.87337500000000001,-0.18583464285409418
-0.873,-0.19253589494279338
-0.87262499999999998,-0.19689170880044782
-0.87225000000000008,-0.19923714703149253
-0.87187500000000007,-0.19923714703149253
-0.87150000000000005,-0.19722677140488282
-0.87112500000000004,-0.19287095754722833
-0.87075000000000002,-0.18583464285409418
-0.87037500000000001,-0.17645288992991531
-0.87,-0.16506076137912667
-0.86962499999999998,-0.15232838241059826
-0.86925000000000008,-0.13758562781546002
-0.86887500000000006,-0.12183768540701695
-0.86850000000000005,-0.10508455518526896
-0.86812500000000004,-0.087326237150216118
-0.86775000000000002,-0.069902981719598245
-0.86737500000000001,-0.052479726288980344
-0.86699999999999999,-0.036061658671667357
-0.86662499999999998,-0.020313716263224257
-0.86625000000000008,-0.0059060242725210016
-0.86587500000000006,0.0074964799048773678
-0.86550000000000005,0.019558733664535907
-0.86512500000000003,0.029945674402019645
-0.86475000000000002,0.038657302117328582
-0.864375,0.046028679414897689
-0.86399999999999999,0.051389681085857036
-0.86362499999999998,0.055075369734641597
-0.86325000000000007,0.057420807965686313
-0.86287500000000006,0.058425995778991192
-0.86250000000000004,0.05775587057012127
-0.86212500000000003,0.056080557547946476
-0.86175000000000002,0.053064994108031838
-0.861375,0.048709180250377362
-0.86099999999999999,0.044353366392722901
-0.86062499999999997,0.038657302117328582
-0.86025000000000007,0.032961237841934277
-0.85987500000000006,0.027265173566539971
-0.85950000000000004,0.021234046686710709
-0.85912500000000003,0.015873045015751347
-0.85875000000000001,0.010847105949226957
-0.858375,0.0068263546960074528
-0.85799999999999998,0.0034757286516578639
-0.85762499999999997,0.0021354782339180201
-0.85725000000000007,0.0018004156294830626
-0.85687500000000005,0.0028056034427879351
-0.85650000000000004,0.0061562294871375378
-0.85612500000000002,0.010847105949226957
-0.85575000000000001,0.017548358037926148
-0.855375,0.026595048357670056
-0.85499999999999998,0.037317051699588752
-0.85462500000000008,0.050384493272552164
-0.85425000000000006,0.065127247867690377
-0.85387500000000005,0.082550503298308264
-0.85350000000000004,0.10164907175110094
-0.85312500000000002,0.12275801583050339
-0.85275000000000001,0.14554227293208061
-0.85237499999999999,0.16966678045139769
-0.85199999999999998,0.19546660099288957
-0.85162500000000008,0.22126642153438142
-0.85125000000000006,0.24807142988917819
-0.85087500000000005,0.27454137563953995
-0.85050000000000003,0.30134638399433672
-0.85012500000000002,0.32748126714026354
-0.84975000000000001,0.35328108768175542
-0.84937499999999999,0.37807572040994242
-0.84899999999999998,0.40085997751151964
-0.84862500000000007,0.42196892159092209
-0.84825000000000006,0.44073242743927982
-0.84787500000000005,0.45681543245215783
-0.84750000000000003,0.47055299923399119
-0.84712500000000002,0.48127500257590988
-0.84675,0.48931650508234892
-0.84637499999999999,0.49467750675330824
-0.84599999999999997,0.49735800758878795
-0.84562500000000007,0.49735800758878795
-0.84525000000000006,0.49400738154443835
-0.84487500000000004,0.48764119206017409
-0.84450000000000003,0.47859450174043022
-0.84412500000000001,0.46686731058520664
-0.84375,0.4524596185945034
-0.84337499999999999,0.43637661358162533
-0.84299999999999997,0.41694298252439771
-0.84262500000000007,0.39650416365386515
-0.84225000000000005,0.37439003176115787
-0.84187500000000004,0.35160577465958065
-0.84150000000000003,0.32848645495356843
-0.84112500000000001,0.30503207264312127
-0.84075,0.28191275293710905
-0.84037499999999998,0.25912849583553182
-0.83999999999999997,0.23701436394282452
-0.83962500000000007,0.21624048246785704
-0.83925000000000005,0.1968068514106294
-0.83887500000000004,0.17904853337557655
-0.83850000000000002,0.16296552836269851
-0.83812500000000001,0.14889289897643021
-0.83774999999999999,0.13716570782120663
-0.83737499999999998,0.12778395489702776
-0.83700000000000008,0.12041257759945867
-0.83662500000000006,0.11505157592849932
-0.83625000000000005,0.11136588727971476
-0.83587500000000003,0.109355511653105
-0.83550000000000002,0.10801526123536517
-0.83512500000000001,0.10801526123536517
-0.83474999999999999,0.10768019863093022
-0.83437499999999998,0.10768019863093022
-0.83400000000000007,0.10701007342206029
-0.83362500000000006,0.10633994821319037
-0.83325000000000005,0.10466463519101558
-0.83287500000000003,0.10265425956440583
-0.83250000000000002,0.098968570915621265
-0.832125,0.094277694453531846
-0.83174999999999999,0.087911504969267612
-0.83137499999999998,0.078864814649523718
-0.83100000000000007,0.068142811307605008
-0.83062500000000006,0.055075369734641597
-0.83025000000000004,0.040332615139503383
-0.82987500000000003,0.023914547522190382
-0.82950000000000002,0.0058211668827025664
-0.829125,-0.01361246417452508
-0.82874999999999999,-0.034386345649492556
-0.82837499999999997,-0.056835540146634833
-0.82800000000000007,-0.079954859852647026
-0.82762500000000006,-0.1040793673719641
-0.82725000000000004,-0.12853893749571613
-0.82687500000000003,-0.15333357022390309
-0.82650000000000001,-0.17712301513878526
-0.826125,-0.19990727224036248
-0.82574999999999998,-0.22135127892419987
-0.82537499999999997,-0.24111997258586249
-0.82500000000000007,-0.25921335322535027
-0.82462500000000005,-0.27529635823822829
-0.82425000000000004,-0.28970405022893159
-0.82387500000000002,-0.30243642919746
-0.82350000000000001,-0.31349349514381369
-0.823125,-0.32287524806799256
-0.82274999999999998,-0.33024662536556165
-0.82237500000000008,-0.33560762703652097
-0.82200000000000006,-0.33895825308087058
-0.82162500000000005,-0.34029850349861041
-0.82125000000000004,-0.33962837828974052
-0.82087500000000002,-0.33661281484982586
-0.82050000000000001,-0.33158687578330148
-0.82012499999999999,-0.32421549848573239
-0.81974999999999998,-0.31483374556155352
-0.81937500000000008,-0.30377667961519988
-0.81900000000000006,-0.29137936325110636
-0.81862500000000005,-0.27764179646927301
-0.81825000000000003,-0.26356916708300476
-0.81787500000000002,-0.24916147509230147
-0.8175,-0.23475378310159822
-0.81712499999999999,-0.22068115371532993
-0.81674999999999998,-0.20727864953793157
-0.81637500000000007,-0.19421120796496816
-0.81600000000000006,-0.18147882899643969
-0.81562500000000004,-0.16941657523678116
-0.81525000000000003,-0.15835950929042752
-0.81487500000000002,-0.14830763115737872
-0.8145,-0.13892587823319985
-0.81412499999999999,-0.13155450093563076
-0.81374999999999997,-0.1255233740558015
-0.81337500000000007,-0.12150262280258198
-0.81300000000000006,-0.11949224717597223
-0.81262500000000004,-0.11915718457153726
-0.81225000000000003,-0.12083249759371206
-0.81187500000000001,-0.12418312363806167
-0.8115,-0.12954412530902101
-0.81112499999999998,-0.13658044000215513
-0.81074999999999997,-0.14529206771746411
-0.81037500000000007,-0.15601407105938281
-0.81000000000000005,-0.16740619961017139
-0.80962500000000004,-0.17980351597426492
-0.80925000000000002,-0.19220083233835838
-0.80887500000000001,-0.20459814870245191
-0.8085,-0.21666040246211044
-0.80812499999999998,-0.22805253101289907
-0.80774999999999997,-0.23810440914594783
-0.80737500000000006,-0.24648097425682181
-0.80700000000000005,-0.2538523515543909
-0.80662500000000004,-0.25988347843422016
-0.80625000000000002,-0.26390422968743971
-0.80587500000000001,-0.26624966791848442
-0.80549999999999999,-0.26658473052291937
-0.80512499999999998,-0.26457435489630959
-0.80475000000000008,-0.2605536036430901
-0.80437500000000006,-0.2538523515543909
-0.80400000000000005,-0.24514072383908198
-0.80362500000000003,-0.23475378310159822
-0.80325000000000002,-0.22235646673750475
-0.80287500000000001,-0.20828383735123646
-0.80249999999999999,-0.19287095754722833
-0.80212499999999998,-0.17645288992991531
-0.80175000000000007,-0.15936469710373241
-0.80137500000000006,-0.1429466294864194
-0.80100000000000005,-0.12619349926467141
-0.80062500000000003,-0.11044555685622831
-0.80025000000000002,-0.095367739656655154
-0.799875,-0.080960047665951884
-0.79949999999999999,-0.067222480884118557
-0.79912499999999997,-0.054490101915590117
-0.79875000000000007,-0.042427848155931563
-0.79837500000000006,-0.031370782209577924
-0.79800000000000004,-0.021989029285399059
-0.79762500000000003,-0.01361246417452508
-0.79725000000000001,-0.006911212085825888
-0.796875,-0.0015502104148665263
-0.79649999999999999,0.0018004156294830626
-0.79612499999999997,0.0028056034427879351
-0.79575000000000007,0.0021354782339180201
-0.79537500000000005,-0.00054502260156165383
-0.79500000000000004,-0.0052358990636510866
-0.79462500000000003,-0.011602088547915307
-0.79425000000000001,-0.020313716263224257
-0.793875,-0.030030531791838067
-0.79349999999999998,-0.041757722947061648
-0.79312499999999997,-0.054490101915590117
-0.79275000000000007,-0.068227668697423444
-0.79237500000000005,-0.082300298083691742
-0.79200000000000004,-0.09637292746996004
-0.79162500000000002,-0.11078061946066328
-0.79125000000000001,-0.12418312363806167
-0.79087499999999999,-0.13691550260659013
-0.79049999999999998,-0.14830763115737872
-0.79012499999999997,-0.15835950929042752
-0.78975000000000006,-0.16707113700573645
-0.78937500000000005,-0.17343732649000065
-0.78900000000000003,-0.1774580777432202
-0.78862500000000002,-0.17879832816096003
-0.78825000000000001,-0.17812820295209009
-0.78787499999999999,-0.17511263951217548
-0.78749999999999998,-0.17008670044565111
-0.78712500000000007,-0.1633854483569519
-0.78675000000000006,-0.15534394585051287
-0.78637500000000005,-0.145962192926334
-0.78600000000000003,-0.13557525218885025
-0.78562500000000002,-0.12418312363806167
-0.78525,-0.11212086987840311
-0.78487499999999999,-0.099388490909874672
-0.78449999999999998,-0.08632104933691126
-0.78412500000000007,-0.072918545159512876
-0.78375000000000006,-0.059180978377679549
-0.78337500000000004,-0.045778474200281166
-0.78300000000000003,-0.032375970022882783
-0.78262500000000002,-0.019978653658789286
-0.78225,-0.007581337294695803
-0.78187499999999999,0.0031406660472228926
-0.78149999999999997,0.012857481575836716
-0.78112500000000007,0.020898984082275737
-0.78075000000000006,0.027265173566539971
-0.78037500000000004,0.031956050028629404
-0.78000000000000003,0.034971613468544036
-0.77962500000000001,0.035976801281848908
-0.77925,0.035641738677413951
-0.77887499999999998,0.032961237841934277
-0.77849999999999997,0.028605423984279801
-0.77812500000000007,0.022239234500015581
-0.77775000000000005,0.013862669389141602
-0.77737500000000004,0.0031406660472228926
-0.77700000000000002,-0.0095917129213055619
-0.77662500000000001,-0.024669530120878719
-0.77625,-0.040417472529321818
-0.77587499999999998,-0.057840727959939692
-0.77549999999999997,-0.075263983390557593
-0.77512500000000006,-0.093022301425610437
-0.77475000000000005,-0.11011049425179337
-0.77437500000000004,-0.12619349926467141
-0.77400000000000002,-0.14127131646424457
-0.77362500000000001,-0.15400369543277304
-0.77324999999999999,-0.16506076137912667
-0.77287499999999998,-0.1741074516988706
-0.77250000000000008,-0.1808087037875698
-0.77212500000000006,-0.18583464285409418
-0.77175000000000005,-0.18818008108513889
-0.77137500000000003,-0.18851514368957384
-0.77100000000000002,-0.18683983066739906
-0.770625,-0.18281907941417952
-0.77024999999999999,-0.17712301513878526
-0.76987499999999998,-0.16941657523678116
-0.76950000000000007,-0.15969975970816735
-0.76912500000000006,-0.14797256855294377
-0.76875000000000004,-0.13457006437554542
-0.76837500000000003,-0.11949224717597223
-0.76800000000000002,-0.10374430476752913
-0.767625,-0.087996362359086033
-0.76724999999999999,-0.07191335734620799
-0.76687499999999997,-0.055495289728894975
-0.76650000000000007,-0.040082409924886847
-0.76612500000000006,-0.02500459272531369
-0.76575000000000004,-0.010931963339045392
-0.76537500000000003,0.0018004156294830626
-0.76500000000000001,0.012857481575836716
-0.764625,0.021569109291145666
-0.76424999999999998,0.027935298775409886
-0.76387499999999997,0.031956050028629404
-0.76350000000000007,0.032961237841934277
-0.76312500000000005,0.031956050028629404
-0.76275000000000004,0.028605423984279801
-0.76237500000000002,0.023914547522190382
-0.76200000000000001,0.017548358037926148
-0.761625,0.0098419181359220842
-0.76124999999999998,0.0011302904206131476
-0.76087499999999997,-0.008251462503565718
-0.76050000000000006,-0.018638403241049456
-0.76012500000000005,-0.029695469187403123
-0.75975000000000004,-0.041087597738191733
-0.75937500000000002,-0.053149851497850259
-0.75900000000000001,-0.065547167861943756
-0.75862499999999999,-0.077944484226037253
-0.75824999999999998,-0.09034180059013075
-0.75787499999999997,-0.10206899174535433
-0.75750000000000006,-0.113126057691708
-0.75712500000000005,-0.12351299842919172
-0.75675000000000003,-0.13222462614450067
-0.75637500000000002,-0.13959600344206979
-0.75600000000000001,-0.14529206771746411
-0.75562499999999999,-0.14897775636624866
-0.75524999999999998,-0.15065306938842343
-0.75487500000000007,-0.14998294417955355
-0.75450000000000006,-0.14730244334407383
-0.75412500000000005,-0.14227650427754945
-0.75375000000000003,-0.1352401895844153
-0.75337500000000002,-0.12652856186910638
-0.753,-0.11614162113162263
-0.75262499999999999,-0.10441442997639905
-0.75224999999999997,-0.091682051007870607
-0.75187500000000007,-0.077944484226037253
-0.75150000000000006,-0.064541980048638897
-0.75112500000000004,-0.051139475871240514
-0.75075000000000003,-0.038072034298277102
-0.75037500000000001,-0.02634484314305352
-0.75,-0.015287777196699853
-0.74962499999999999,-0.0052358990636510866
-0.74924999999999997,0.0034757286516578639
-0.74887500000000007,0.011182168553661928
-0.74850000000000005,0.017548358037926148
-0.74812500000000004,0.022239234500015581
-0.74775000000000003,0.025254797939930212
-0.74737500000000001,0.026595048357670056
-0.747,0.025924923148800127
-0.74662499999999998,0.023244422313320454
-0.74624999999999997,0.018218483246796063
-0.74587500000000007,0.011517231158096886
-0.74550000000000005,0.0034757286516578639
-0.74512500000000004,-0.0059060242725210016
-0.74475000000000002,-0.015622839801134825
-0.74437500000000001,-0.026009780538618577
-0.74399999999999999,-0.037066846484972216
-0.74362499999999998,-0.047788849826890911
-0.74324999999999997,-0.059180978377679549
-0.74287500000000006,-0.069902981719598245
-0.74250000000000005,-0.079954859852647026
-0.74212500000000003,-0.089336612776825891
-0.74175000000000002,-0.098383303096569785
-0.74137500000000001,-0.10608974299857385
-0.74099999999999999,-0.11279099508727303
-0.74062499999999998,-0.11781693415379743
-0.74024999999999996,-0.12116756019814701
-0.73987500000000006,-0.12351299842919172
-0.73950000000000005,-0.12384806103362669
-0.73912500000000003,-0.12217274801145189
-0.73875000000000002,-0.11848705936266735
-0.738375,-0.11279099508727303
-0.73799999999999999,-0.10541961778970393
-0.73762499999999998,-0.095702802261090097
-0.73725000000000007,-0.084645736314736458
-0.73687500000000006,-0.071578294741773046
-0.73650000000000004,-0.057170602751069777
-0.73612500000000003,-0.04209278555149662
-0.73575000000000002,-0.026679905747488492
-0.735375,-0.010931963339045392
-0.73499999999999999,0.0044809164649627364
-0.73462499999999997,0.019893796268970865
-0.73425000000000007,0.034636550864109078
-0.73387500000000006,0.048709180250377362
-0.73350000000000004,0.062446747032210703
-0.73312500000000003,0.075179126000739158
-0.73275000000000001,0.086571254551527782
-0.732375,0.096288070080141591
-0.73199999999999998,0.10432957258658063
-0.73162499999999997,0.11036069946640989
-0.73125000000000007,0.11404638811519444
-0.73087500000000005,0.11471651332406436
-0.73050000000000004,0.11270613769745461
-0.73012500000000002,0.10868538644423509
-0.72975000000000001,0.10164907175110094
-0.729375,0.092602381431357045
-0.72899999999999998,0.081880378089438349
-0.72862499999999997,0.069147999120909881
-0.72825000000000006,0.055410432339076554
-0.72787500000000005,0.040667677743938341
-0.72750000000000004,0.024584672731060297
-0.72712500000000002,0.0074964799048773678
-0.72675000000000001,-0.0099267755257405055
-0.72637499999999999,-0.02768509356079335
-0.72599999999999998,-0.045108348991411251
-0.72562499999999996,-0.06186147921315921
-0.72525000000000006,-0.077944484226037253
-0.72487500000000005,-0.093022301425610437
-0.72450000000000003,-0.10742999341631368
-0.72412500000000002,-0.12049743498927709
-0.72375,-0.13222462614450067
-0.72337499999999999,-0.1426115668819844
-0.72299999999999998,-0.15132319459729338
-0.72262500000000007,-0.15768938408155758
-0.72225000000000006,-0.16238026054364701
-0.72187500000000004,-0.16539582398356167
-0.72150000000000003,-0.1664010117968665
-0.72112500000000002,-0.16573088658799662
-0.72075,-0.1633854483569519
-0.72037499999999999,-0.15936469710373241
-0.71999999999999997,-0.15400369543277304
-0.71962500000000007,-0.14663231813520394
-0.71925000000000006,-0.13758562781546002
-0.71887500000000004,-0.12686362447354133
-0.71850000000000003,-0.11547149592275271
-0.71812500000000001,-0.1024040543497893
-0.71775,-0.08900155017239092
-0.71737499999999998,-0.075263983390557593
-0.71699999999999997,-0.061526416608724266
-0.71662500000000007,-0.048123912431325883
-0.71625000000000005,-0.035391533462797414
-0.71587500000000004,-0.023329279703138889
-0.71550000000000002,-0.011937151152350278
-0.71512500000000001,-0.00088008520599661133
-0.71475,0.010176980740357042
-0.71437499999999998,0.020228858873405822
-0.71399999999999997,0.029945674402019645
-0.71362500000000006,0.038992364721763553
-0.71325000000000005,0.047033867228202575
-0.71287500000000004,0.05373511931690176
-0.71250000000000002,0.059096120987861107
-0.71212500000000001,0.062111684427775746
-0.71174999999999999,0.063116872241080618
-0.71137499999999998,0.062111684427775746
-0.71099999999999997,0.058425995778991192
-0.71062500000000006,0.052059806294726965
-0.71025000000000005,0.043013115974983057
-0.70987500000000003,0.031956050028629404
-0.70950000000000002,0.018218483246796063
-0.70912500000000001,0.0031406660472228926
-0.70874999999999999,-0.013277401570090108
-0.70837499999999998,-0.030365594396273038
-0.70799999999999996,-0.047453787222455968
-0.70762500000000006,-0.064206917444203926
-0.70725000000000005,-0.079954859852647026
-0.70687500000000003,-0.094027489238915324
-0.70650000000000002,-0.10675986820744376
-0.706125,-0.11748187154936246
-0.70574999999999999,-0.12652856186910638
-0.70537499999999997,-0.13322981395780556
-0.70500000000000007,-0.13758562781546002
-0.70462500000000006,-0.13993106604650474
-0.70425000000000004,-0.14026612865093968
-0.70387500000000003,-0.13892587823319985
-0.70350000000000001,-0.13557525218885025
-0.703125,-0.13054931312232587
-0.70274999999999999,-0.12384806103362669
-0.70237499999999997,-0.11547149592275271
-0.70200000000000007,-0.10508455518526896
-0.70162500000000005,-0.093692426634480352
-0.70125000000000004,-0.081295110270386856
-0.70087500000000003,-0.068562731301858415
-0.70050000000000001,-0.055160227124460032
-0.700125,-0.041757722947061648
-0.69974999999999998,-0.029025343978533208
-0.69937499999999997,-0.016628027614439711
-0.69900000000000007,-0.0052358990636510866
-0.69862500000000005,0.0051510416738326514
-0.69825000000000004,0.013862669389141602
-0.69787500000000002,0.021234046686710709
-0.69750000000000001,0.027600236170974929
-0.69712499999999999,0.031956050028629404
-0.69674999999999998,0.034636550864109078
-0.69637499999999997,0.035306676072978993
-0.69600000000000006,0.034636550864109078
-0.69562500000000005,0.032291112633064362
-0.69525000000000003,0.028605423984279801
-0.69487500000000002,0.023914547522190382
-0.69450000000000001,0.017548358037926148
-0.69412499999999999,0.010512043344791999
-0.69374999999999998,0.0024705408383529776
-0.69337499999999996,-0.0059060242725210016
-0.69300000000000006,-0.01495271459226491
-0.69262500000000005,-0.02366434230757386
-0.69225000000000003,-0.032040907418447839
-0.69187500000000002,-0.04075253513375679
-0.6915,-0.049464162849065713
-0.69112499999999999,-0.057840727959939692
-0.69074999999999998,-0.065882230466378727
-0.69037499999999996,-0.072918545159512876
-0.69000000000000006,-0.078949672039342139
-0.68962500000000004,-0.083640548501431572
-0.68925000000000003,-0.086991174545781175
-0.68887500000000002,-0.087996362359086033
-0.6885,-0.086991174545781175
-0.68812499999999999,-0.083640548501431572
-0.68774999999999997,-0.078279546830472224
-0.68737500000000007,-0.071243232137338075
-0.68700000000000006,-0.062196541817594181
-0.68662500000000004,-0.051474538475675485
-0.68625000000000003,-0.039077222111581988
-0.68587500000000001,-0.025674717934183605
-0.6855,-0.011267025943480363
-0.68512499999999998,0.0038107912560928214
-0.68474999999999997,0.01922367106010095
-0.68437500000000007,0.034971613468544036
-0.68400000000000005,0.050049430668117206
-0.68362500000000004,0.064122060054385505
-0.68325000000000002,0.077524564231783874
-0.68287500000000001,0.089586817991442413
-0.6825,0.099973758728926151
-0.68212499999999998,0.10835032383980013
-0.68174999999999997,0.11471651332406436
-0.68137500000000006,0.11873726457728387
-0.68100000000000005,0.12074764020389363
-0.68062500000000004,0.12108270280832859
-0.68025000000000002,0.11974245239058876
-0.67987500000000001,0.11639182634623915
-0.67949999999999999,0.1110308246752798
-0.67912499999999998,0.10432957258658063
-0.67874999999999996,0.096288070080141591
-0.67837500000000006,0.086236191947092811
-0.67800000000000005,0.075179126000739158
-0.67762500000000003,0.063116872241080618
-0.67725000000000002,0.050049430668117206
-0.676875,0.035976801281848908
-0.67649999999999999,0.021569109291145666
-0.67612499999999998,0.0061562294871375378
-0.67574999999999996,-0.0092566503168706044
-0.67537500000000006,-0.024669530120878719
-0.67500000000000004,-0.039412284716016932
-0.67462500000000003,-0.053149851497850259
-0.67425000000000002,-0.065882230466378727
-0.673875,-0.076939296412732394
-0.67349999999999999,-0.08632104933691126
-0.67312499999999997,-0.094027489238915324
-0.67275000000000007,-0.099723553514309615
-0.67237500000000006,-0.10307417955865922
-0.67200000000000004,-0.1040793673719641
-0.67162500000000003,-0.10273911695422425
-0.67125000000000001,-0.099388490909874672
-0.670875,-0.093692426634480352
-0.67049999999999998,-0.085650924128041317
-0.67012499999999997,-0.075599045994992536
-0.66975000000000007,-0.06320172963089904
-0.66937500000000005,-0.048794037640195798
-0.66900000000000004,-0.033046095231752698
-0.66862500000000002,-0.015957902405569796
-0.66825000000000001,0.0021354782339180201
-0.667875,0.02056392147784078
-0.66749999999999998,0.039662489930633468
-0.66712499999999997,0.058425995778991192
-0.66675000000000006,0.076519376418479002
-0.66637500000000005,0.09327250664022696
-0.66600000000000004,0.10801526123536517
-0.66562500000000002,0.12108270280832859
-0.66525000000000001,0.13146964354581234
-0.66487499999999999,0.1391760834478164
-0.66449999999999998,0.14286177209660095
-0.66412499999999997,0.14353189730547086
-0.66375000000000006,0.14118645907442615
-0.66337500000000005,0.1358254574034668
-0.66300000000000003,0.12845408010589771
-0.66262500000000002,0.11907232718171883
-0.66225000000000001,0.10835032383980013
-0.66187499999999999,0.095953007475706634
-0.66149999999999998,0.082215440693873293
-0.66112499999999996,0.067137623494300136
-0.66075000000000006,0.051389681085857036
-0.66037500000000005,0.034301488259674121
-0.66000000000000003,0.016878232829056233
-0.65962500000000002,-0.00088008520599661133
-0.65925,-0.018638403241049456
-0.65887499999999999,-0.035391533462797414
-0.65849999999999997,-0.051474538475675485
-0.65812499999999996,-0.066552355675248642
-0.65775000000000006,-0.080289922457081969
-0.65737500000000004,-0.092687238821175466
-0.65700000000000003,-0.10441442997639905
-0.65662500000000001,-0.11413124550501288
-0.65625,-0.12183768540701695
-0.65587499999999999,-0.12753374968241124
-0.65549999999999997,-0.13054931312232587
-0.65512500000000007,-0.13155450093563076
-0.65475000000000005,-0.12987918791345596
-0.65437500000000004,-0.12619349926467141
-0.65400000000000003,-0.12049743498927709
-0.65362500000000001,-0.11279099508727303
-0.65325,-0.10340924216309416
-0.65287499999999998,-0.092687238821175466
-0.65249999999999997,-0.080624985061516941
-0.65212500000000007,-0.067557543488553529
-0.65175000000000005,-0.053149851497850259
-0.65137500000000004,-0.038407096902712073
-0.65100000000000002,-0.022994217098703917
-0.65062500000000001,-0.007581337294695803
-0.65024999999999999,0.0074964799048773678
-0.64987499999999998,0.022239234500015581
-0.64949999999999997,0.036646926490718837
-0.64912500000000006,0.050049430668117206
-0.64875000000000005,0.062446747032210703
-0.64837500000000003,0.073838875582999314
-0.64800000000000002,0.083220628507178179
-0.64762500000000001,0.091262131013617201
-0.64724999999999999,0.097293257893446478
-0.64687499999999998,0.10064388393779607
-0.64649999999999996,0.10164907175110094
-0.64612500000000006,0.10030882133336111
-0.64575000000000005,0.096623132684576563
-0.64537500000000003,0.090592005804747286
-0.64500000000000002,0.082550503298308264
-0.644625,0.072833687769694441
-0.64424999999999999,0.061776621823340781
-0.64387499999999998,0.049379305459247291
-0.64349999999999996,0.035976801281848908
-0.64312500000000006,0.022239234500015581
-0.64275000000000004,0.0078315425093123253
-0.64237500000000003,-0.0059060242725210016
-0.64200000000000002,-0.019308528449919371
-0.641625,-0.031705844814012868
-0.64124999999999999,-0.042762910760366535
-0.64087499999999997,-0.052814788893415315
-0.64049999999999996,-0.061526416608724266
-0.64012500000000006,-0.068897793906293359
-0.63975000000000004,-0.074593858181687678
-0.63937500000000003,-0.079284734643777111
-0.63900000000000001,-0.082300298083691742
-0.638625,-0.083975611105866543
-0.63824999999999998,-0.084645736314736458
-0.63787499999999997,-0.084310673710301487
-0.63750000000000007,-0.081965235479256771
-0.63712500000000005,-0.078279546830472224
-0.63675000000000004,-0.07325360776394782
-0.63637500000000002,-0.066217293070813699
-0.63600000000000001,-0.057840727959939692
-0.635625,-0.048123912431325883
-0.63524999999999998,-0.037066846484972216
-0.63487499999999997,-0.024669530120878719
-0.63450000000000006,-0.011602088547915307
-0.63412500000000005,0.0018004156294830626
-0.63375000000000004,0.015537982411316389
-0.63337500000000002,0.028940486588714773
-0.63300000000000001,0.041672865557243227
-0.63262499999999999,0.054405244525771675
-0.63224999999999998,0.066467498285430221
-0.63187499999999996,0.077859626836218832
-0.63150000000000006,0.088581630178137527
-0.63112500000000005,0.097963383102316393
-0.63075000000000003,0.1053347603998855
-0.63037500000000002,0.11136588727971476
-0.63,0.11572170113736924
-0.62962499999999999,0.11806713936841395
-0.62924999999999998,0.11907232718171883
-0.62887499999999996,0.11840220197284891
-0.62850000000000006,0.11672688895067411
-0.62812500000000004,0.11337626290632452
-0.62775000000000003,0.10868538644423509
-0.62737500000000002,0.10332438477327574
-0.627,0.096623132684576563
-0.62662499999999999,0.089586817991442413
-0.62624999999999997,0.081880378089438349
-0.62587499999999996,0.074173938187434285
-0.62550000000000006,0.06613243568099525
-0.62512500000000004,0.058090933174556228
-0.62475000000000003,0.050049430668117206
-0.62437500000000001,0.0426780533705481
-0.624,0.035976801281848908
-0.62362499999999998,0.030280737006454603
-0.62324999999999997,0.026259985753235099
-0.62287500000000007,0.023244422313320454
-0.62250000000000005,0.021904171895580624
-0.62212500000000004,0.022239234500015581
-0.62175000000000002,0.024584672731060297
-0.62137500000000001,0.028605423984279801
-0.621,0.034301488259674121
-0.62062499999999998,0.041002740348373298
-0.62024999999999997,0.049044242854812334
-0.61987500000000006,0.05775587057012127
-0.61950000000000005,0.067807748703170051
-0.61912500000000004,0.078864814649523718
-0.61875000000000002,0.090592005804747286
-0.61837500000000001,0.10265425956440583
-0.61799999999999999,0.11505157592849932
-0.61762499999999998,0.12744889229259282
-0.61724999999999997,0.13984620865668632
-0.61687500000000006,0.15157339981190987
-0.61650000000000005,0.16296552836269851
-0.61612500000000003,0.1736875317046172
-0.61575000000000002,0.18407447244210096
-0.61537500000000001,0.19345622536627982
-0.61499999999999999,0.20250291568602369
-0.61462499999999998,0.21054441819246272
-0.61424999999999996,0.21758073288559687
-0.61387500000000006,0.22260667195212125
-0.61350000000000005,0.22595729799647085
-0.61312500000000003,0.22696248580977574
-0.61275000000000002,0.22495211018316597
-0.612375,0.21992617111664159
-0.61199999999999999,0.21154960600576761
-0.61162499999999997,0.20015747745497897
-0.61124999999999996,0.18541472285984079
-0.61087500000000006,0.16832653003365786
-0.61050000000000004,0.14855783637199527
-0.61012500000000003,0.12711382968815785
-0.60975000000000001,0.10466463519101558
-0.609375,0.081210252880568434
-0.60899999999999999,0.058090933174556228
-0.60862499999999997,0.035976801281848908
-0.60824999999999996,0.014867857202446474
-0.60787500000000005,-0.0042307112503462141
-0.60750000000000004,-0.021653966680964087
-0.60712500000000003,-0.036396721276102301
-0.60675000000000001,-0.049464162849065713
-0.606375,-0.060521228795419379
-0.60599999999999998,-0.069567919115163274
-0.60562499999999997,-0.076269171203862479
-0.60525000000000007,-0.080960047665951884
-0.60487500000000005,-0.083305485896996601
-0.60450000000000004,-0.083975611105866543
-0.60412500000000002,-0.082635360688126686
-0.60375000000000001,-0.079284734643777111
-0.60337499999999999,-0.074593858181687678
-0.60299999999999998,-0.068227668697423444
-0.60262499999999997,-0.059851103586549464
-0.60225000000000006,-0.050134288057935628
-0.60187500000000005,-0.038742159507147017
-0.60150000000000003,-0.02634484314305352
-0.60112500000000002,-0.012942338965655165
-0.60075000000000001,0.0011302904206131476
-0.60037499999999999,0.014867857202446474
-0.59999999999999998,0.028605423984279801
-0.59962499999999996,0.041672865557243227
-0.59925000000000006,0.053400056712466802
-0.59887500000000005,0.063786997449950533
-0.59850000000000003,0.072498625165259484
-0.59812500000000002,0.079534939858393633
-0.59775,0.084560878924918023
-0.59737499999999999,0.087911504969267612
-0.59699999999999998,0.089586817991442413
-0.59662499999999996,0.089586817991442413
-0.59625000000000006,0.087576442364832655
-0.59587500000000004,0.083555691111613137
-0.59550000000000003,0.078194689440653789
-0.59512500000000002,0.070488249538649725
-0.59475,0.061106496614470866
-0.59437499999999999,0.050049430668117206
-0.59399999999999997,0.037652114304023709
-0.59362499999999996,0.023914547522190382
-0.59325000000000006,0.0095068555314871267
-0.59287500000000004,-0.0049008364592161291
-0.59250000000000003,-0.019643591054354342
-0.59212500000000001,-0.034051283045057584
-0.59175,-0.047788849826890911
-0.59137499999999998,-0.060856291399854323
-0.59099999999999997,-0.072918545159512876
-0.59062499999999996,-0.083975611105866543
-0.59025000000000005,-0.094027489238915324
-0.58987500000000004,-0.10340924216309416
-0.58950000000000002,-0.11111568206509823
-0.58912500000000001,-0.11748187154936246
-0.58875,-0.12183768540701695
-0.58837499999999998,-0.12384806103362669
-0.58799999999999997,-0.12384806103362669
-0.58762500000000006,-0.12116756019814701
-0.58725000000000005,-0.11681174634049254
-0.58687500000000004,-0.11011049425179337
-0.58650000000000002,-0.10206899174535433
-0.58612500000000001,-0.092017113612305551
-0.58574999999999999,-0.081630172874821827
-0.58537499999999998,-0.069567919115163274
-0.58499999999999996,-0.056835540146634833
-0.58462500000000006,-0.043768098573671421
-0.58425000000000005,-0.030700657000708009
-0.58387500000000003,-0.017298152823309626
-0.58350000000000002,-0.0045657738547811716
-0.583125,0.0078315425093123253
-0.58274999999999999,0.01922367106010095
-0.58237499999999998,0.029945674402019645
-0.58199999999999996,0.039327427326198511
-0.58162500000000006,0.047033867228202575
-0.58125000000000004,0.05373511931690176
-0.58087500000000003,0.05876105838342615
-0.58050000000000002,0.062446747032210703
-0.580125,0.063786997449950533
-0.57974999999999999,0.063786997449950533
-0.57937499999999997,0.062111684427775746
-0.57899999999999996,0.05876105838342615
-0.57862500000000006,0.054070181921336717
-0.57825000000000004,0.048374117645942405
-0.57787500000000003,0.04133780295280827
-0.57750000000000001,0.033296300446369234
-0.577125,0.02424961012662534
-0.57674999999999998,0.014197731993576559
-0.57637499999999997,0.0028056034427879351
-0.57599999999999996,-0.0092566503168706044
-0.57562500000000005,-0.021989029285399059
-0.57525000000000004,-0.035391533462797414
-0.57487500000000002,-0.049129100244630769
-0.57450000000000001,-0.06320172963089904
-0.574125,-0.076604233808297423
-0.57374999999999998,-0.089671675381260835
-0.57337499999999997,-0.10173392914091939
-0.57299999999999995,-0.11245593248283808
-0.57262500000000005,-0.12116756019814701
-0.57225000000000004,-0.12853893749571613
-0.57187500000000002,-0.13389993916667547
-0.57150000000000001,-0.13725056521102508
-0.57112499999999999,-0.13859081562876491
-0.57074999999999998,-0.13859081562876491
-0.57037499999999997,-0.13691550260659013
-0.57000000000000006,-0.13389993916667547
-0.56962500000000005,-0.12954412530902101
-0.56925000000000003,-0.12418312363806167
-0.56887500000000002,-0.11748187154936246
-0.56850000000000001,-0.11011049425179337
-0.56812499999999999,-0.10173392914091939
-0.56774999999999998,-0.093022301425610437
-0.56737499999999996,-0.084310673710301487
-0.56700000000000006,-0.075599045994992536
-0.56662500000000005,-0.067222480884118557
-0.56625000000000003,-0.059180978377679549
-0.56587500000000002,-0.051139475871240514
-0.5655,-0.044438223782541336
-0.56512499999999999,-0.038407096902712073
-0.56474999999999997,-0.033381157836187669
-0.56437499999999996,-0.029695469187403123
-0.56400000000000006,-0.027350030956358407
-0.56362500000000004,-0.02634484314305352
-0.56325000000000003,-0.027014968351923435
-0.56287500000000001,-0.028690281374098237
-0.5625,-0.032040907418447839
-0.56212499999999999,-0.037066846484972216
-0.56174999999999997,-0.043097973364801478
-0.56137499999999996,-0.051139475871240514
-0.56100000000000005,-0.060186166190984408
-0.56062500000000004,-0.070238044324033189
-0.56025000000000003,-0.081295110270386856
-0.55987500000000001,-0.092687238821175466
-0.5595,-0.10474949258083402
-0.55912499999999998,-0.1164766837360576
-0.55874999999999997,-0.12853893749571613
-0.55837499999999995,-0.13993106604650474
-0.55800000000000005,-0.15065306938842343
-0.55762500000000004,-0.16036988491703724
-0.55725000000000002,-0.16908151263234622
-0.55687500000000001,-0.17611782732548037
-0.55649999999999999,-0.18181389160087463
-0.55612499999999998,-0.18549958024965923
-0.55574999999999997,-0.18750995587626895
-0.55537500000000006,-0.18717489327183401
-0.55500000000000005,-0.18449439243635435
-0.55462500000000003,-0.18013857857869986
-0.55425000000000002,-0.17444251430330554
-0.55387500000000001,-0.16707113700573645
-0.55349999999999999,-0.15802444668599253
-0.55312499999999998,-0.14797256855294377
-0.55274999999999996,-0.13658044000215513
-0.55237500000000006,-0.12384806103362669
-0.55200000000000005,-0.11011049425179337
-0.55162500000000003,-0.095702802261090097
-0.55125000000000002,-0.080960047665951884
-0.550875,-0.066887418279683614
-0.55049999999999999,-0.053819976706720202
-0.55012499999999998,-0.04209278555149662
-0.54974999999999996,-0.032711032627317754
-0.54937500000000006,-0.025339655329748634
-0.54900000000000004,-0.019643591054354342
-0.54862500000000003,-0.01629296501000474
-0.54825000000000002,-0.013947526778960023
-0.547875,-0.013277401570090108
-0.54749999999999999,-0.014282589383394995
-0.54712499999999997,-0.016963090218874655
-0.54674999999999996,-0.020983841472094172
-0.54637500000000006,-0.026679905747488492
-0.54600000000000004,-0.034051283045057584
-0.54562500000000003,-0.042762910760366535
-0.54525000000000001,-0.052479726288980344
-0.544875,-0.063871854839768982
-0.54449999999999998,-0.075934108599427508
-0.54412499999999997,-0.089336612776825891
-0.54374999999999996,-0.10307417955865922
-0.54337500000000005,-0.11681174634049254
-0.54300000000000004,-0.13121943833119579
-0.54262500000000002,-0.14529206771746411
-0.54225000000000001,-0.15835950929042752
-0.541875,-0.17142695086339094
-0.54149999999999998,-0.18382426722748441
-0.54112499999999997,-0.1948813331738381
-0.54074999999999995,-0.20459814870245191
-0.54037500000000005,-0.21297471381332589
-0.54000000000000004,-0.21967596590202504
-0.53962500000000002,-0.22470190496854947
-0.53925000000000001,-0.22872265622176896
-0.53887499999999999,-0.23106809445281368
-0.53849999999999998,-0.23173821966168362
-0.53812499999999996,-0.23140315705724862
-0.53775000000000006,-0.2293927814306389
-0.53737500000000005,-0.22570709278185436
-0.53700000000000003,-0.22001102850646004
-0.53662500000000002,-0.21263965120889095
-0.53625,-0.20325789828471208
-0.53587499999999999,-0.19186576973392344
-0.53549999999999998,-0.17913339076539497
-0.53512499999999996,-0.16472569877469173
-0.53475000000000006,-0.14998294417955355
-0.53437500000000004,-0.13457006437554542
-0.53400000000000003,-0.11949224717597223
-0.53362500000000002,-0.10541961778970393
-0.53325,-0.091682051007870607
-0.53287499999999999,-0.078949672039342139
-0.53249999999999997,-0.067557543488553529
-0.53212499999999996,-0.056835540146634833
-0.53175000000000006,-0.047788849826890911
-0.53137500000000004,-0.040082409924886847
-0.53100000000000003,-0.034721408253927499
-0.53062500000000001,-0.030700657000708009
-0.53025,-0.029025343978533208
-0.52987499999999998,-0.029360406582968152
-0.52949999999999997,-0.031370782209577924
-0.52912499999999996,-0.035056470858362471
-0.52875000000000005,-0.041087597738191733
-0.52837500000000004,-0.048123912431325883
-0.52800000000000002,-0.056500477542199862
-0.52762500000000001,-0.066217293070813699
-0.52725,-0.076604233808297423
-0.52687499999999998,-0.087996362359086033
-0.52649999999999997,-0.099388490909874672
-0.52612499999999995,-0.11111568206509823
-0.52575000000000005,-0.12284287322032181
-0.52537500000000004,-0.13457006437554542
-0.52500000000000002,-0.14562713032189906
-0.52462500000000001,-0.15601407105938281
-0.52424999999999999,-0.16506076137912667
-0.52387499999999998,-0.17343732649000065
-0.52349999999999997,-0.1804736411831348
-0.52312499999999995,-0.18583464285409418
-0.52275000000000005,-0.18952033150287872
-0.52237500000000003,-0.1915307071294885
-0.52200000000000002,-0.1915307071294885
-0.52162500000000001,-0.18985539410731367
-0.52124999999999999,-0.18683983066739906
-0.52087499999999998,-0.18181389160087463
-0.52049999999999996,-0.17544770211661043
-0.52012500000000006,-0.16774126221460639
-0.51975000000000005,-0.15869457189486247
-0.51937500000000003,-0.14830763115737872
-0.51900000000000002,-0.13691550260659013
-0.518625,-0.12485324884693158
-0.51824999999999999,-0.11279099508727303
-0.51787499999999997,-0.10039367872317953
-0.51749999999999996,-0.088666487567955976
-0.51712500000000006,-0.077609421621602309
-0.51675000000000004,-0.066887418279683614
-0.51637500000000003,-0.056835540146634833
-0.51600000000000001,-0.047788849826890911
-0.515625,-0.039747347320451903
-0.51524999999999999,-0.033046095231752698
-0.51487499999999997,-0.02768509356079335
-0.51449999999999996,-0.023999404912008804
-0.51412500000000005,-0.021653966680964087
-0.51375000000000004,-0.021318904076529144
-0.51337500000000003,-0.022994217098703917
-0.51300000000000001,-0.02634484314305352
-0.512625,-0.030700657000708009
-0.51224999999999998,-0.037066846484972216
-0.51187499999999997,-0.044103161178106365
-0.51149999999999995,-0.0521446636845454
-0.51112500000000005,-0.060856291399854323
-0.51075000000000004,-0.070238044324033189
-0.51037500000000002,-0.079954859852647026
-0.51000000000000001,-0.089671675381260835
-0.50962499999999999,-0.099388490909874672
-0.50924999999999998,-0.10877024383405351
-0.50887499999999997,-0.11781693415379743
-0.50849999999999995,-0.12619349926467141
-0.50812500000000005,-0.13457006437554542
-0.50775000000000003,-0.14227650427754945
-0.50737500000000002,-0.14897775636624866
-0.50700000000000001,-0.15500888324607792
-0.50662499999999999,-0.15969975970816735
-0.50624999999999998,-0.16405557356582179
-0.50587499999999996,-0.16707113700573645
-0.50550000000000006,-0.16941657523678116
-0.50512500000000005,-0.17075682565452099
-0.50475000000000003,-0.17075682565452099
-0.50437500000000002,-0.16975163784121611
-0.504,-0.16774126221460639
-0.50362499999999999,-0.16439063617025679
-0.50325000000000009,-0.15902963449929741
-0.50287500000000007,-0.15299850761946815
-0.50250000000000006,-0.14562713032189906
-0.50212500000000004,-0.13725056521102508
-0.50175000000000003,-0.12853893749571613
-0.50137500000000002,-0.11949224717597223
-0.501,-0.11011049425179337
-0.50062499999999999,-0.10039367872317953
-0.50025000000000008,-0.091011925799000665
-0.49987500000000001,-0.081630172874821827
-0.4995,-0.072583482555077905
-0.49912499999999999,-0.063871854839768982
-0.49875000000000003,-0.055160227124460032
-0.49837500000000001,-0.047453787222455968
-0.498,-0.04075253513375679
-0.49762499999999998,-0.035056470858362471
-0.49725000000000003,-0.030700657000708009
-0.49687500000000001,-0.027350030956358407
-0.4965,-0.025339655329748634
-0.49612499999999998,-0.02500459272531369
-0.49575000000000002,-0.026009780538618577
-0.49537500000000001,-0.028690281374098237
-0.495,-0.033716220440622641
-0.49462499999999998,-0.04075253513375679
-0.49425000000000002,-0.049464162849065713
-0.49387500000000001,-0.059516040982114493
-0.49349999999999999,-0.071578294741773046
-0.49312499999999998,-0.084310673710301487
-0.49275000000000002,-0.09771317788769987
-0.49237500000000001,-0.11178580727396817
-0.49199999999999999,-0.12585843666023644
-0.49162499999999998,-0.13993106604650474
-0.49125000000000002,-0.15333357022390309
-0.49087500000000001,-0.16573088658799662
-0.49049999999999999,-0.17779314034765514
-0.49012499999999998,-0.18784501848070395
-0.48975000000000002,-0.19622158359157793
-0.489375,-0.20258777307584214
-0.48899999999999999,-0.20627346172462668
-0.48862500000000003,-0.20794877474680151
-0.48825000000000002,-0.20761371214236651
-0.487875,-0.20493321130688685
-0.48749999999999999,-0.20057739744923236
-0.48712500000000003,-0.19421120796496816
-0.48675000000000002,-0.18650476806296407
-0.486375,-0.17712301513878526
-0.48599999999999999,-0.16606594919243156
-0.48562500000000003,-0.15400369543277304
-0.48525000000000001,-0.14026612865093968
-0.484875,-0.12619349926467141
-0.48449999999999999,-0.1114507446695332
-0.48412500000000003,-0.096707990074394984
-0.48375000000000001,-0.082635360688126686
-0.483375,-0.069567919115163274
-0.48299999999999998,-0.057170602751069777
-0.48262500000000003,-0.046113536804716138
-0.48225000000000001,-0.036061658671667357
-0.481875,-0.027014968351923435
-0.48149999999999998,-0.018973465845484427
-0.48112500000000002,-0.012272213756785222
-0.48075000000000001,-0.006911212085825888
-0.480375,-0.0035605860414762852
-0.47999999999999998,-0.0015502104148665263
-0.47962500000000002,-0.0015502104148665263
-0.47925000000000001,-0.0025553982281714127
-0.478875,-0.0055709616680860441
-0.47849999999999998,-0.010261838130175477
-0.47812500000000002,-0.016628027614439711
-0.47775000000000001,-0.024334467516443775
-0.47737499999999999,-0.034386345649492556
-0.47699999999999998,-0.046113536804716138
-0.47662500000000002,-0.059516040982114493
-0.47625000000000001,-0.074593858181687678
-0.47587499999999999,-0.09034180059013075
-0.47549999999999998,-0.10675986820744376
-0.47512500000000002,-0.12284287322032181
-0.47475000000000001,-0.13825575302432996
-0.47437499999999999,-0.15232838241059826
-0.47399999999999998,-0.16506076137912667
-0.47362500000000002,-0.17645288992991531
-0.47325,-0.18549958024965923
-0.47287499999999999,-0.19287095754722833
-0.47250000000000003,-0.19722677140488282
-0.47212500000000002,-0.19957220963592748
-0.47175,-0.19957220963592748
-0.47137499999999999,-0.19722677140488282
-0.47100000000000003,-0.19287095754722833
-0.47062500000000002,-0.18583464285409418
-0.47025,-0.1774580777432202
-0.46987499999999999,-0.1667360744013015
-0.46950000000000003,-0.15500888324607792
-0.46912500000000001,-0.1426115668819844
-0.46875,-0.12954412530902101
-0.46837499999999999,-0.11580655852718766
-0.46800000000000003,-0.1024040543497893
-0.46762500000000001,-0.088331424963521005
-0.46725,-0.074258795577252706
-0.46687499999999998,-0.060856291399854323
-0.46650000000000003,-0.047118724618020996
-0.46612500000000001,-0.034721408253927499
-0.46575,-0.023329279703138889
-0.46537499999999998,-0.013277401570090108
-0.46500000000000002,-0.0049008364592161291
-0.46462500000000001,0.0014653530250481051
-0.46425,0.0061562294871375378
-0.46387499999999998,0.0088367303226172117
-0.46350000000000002,0.0088367303226172117
-0.46312500000000001,0.0068263546960074528
-0.46274999999999999,0.0024705408383529776
-0.46237499999999998,-0.0035605860414762852
-0.46200000000000002,-0.011602088547915307
-0.46162500000000001,-0.021989029285399059
-0.46124999999999999,-0.033381157836187669
-0.46087499999999998,-0.046113536804716138
-0.46050000000000002,-0.060521228795419379
-0.46012500000000001,-0.075599045994992536
-0.45974999999999999,-0.091011925799000665
-0.45937499999999998,-0.10675986820744376
-0.45900000000000002,-0.12217274801145189
-0.458625,-0.13691550260659013
-0.45824999999999999,-0.15098813199285838
-0.45787499999999998,-0.1633854483569519
-0.45750000000000002,-0.17444251430330554
-0.457125,-0.18348920462304946
-0.45674999999999999,-0.19086058192061855
-0.45637499999999998,-0.19555145838270799
-0.45600000000000002,-0.19856702182262265
-0.455625,-0.19923714703149253
-0.45524999999999999,-0.19756183400931776
-0.45487500000000003,-0.19387614536053321
-0.45450000000000002,-0.18851514368957384
-0.454125,-0.1808087037875698
-0.45374999999999999,-0.17142695086339094
-0.45337500000000003,-0.16104001012590718
-0.45300000000000001,-0.14897775636624866
-0.452625,-0.13557525218885025
-0.45224999999999999,-0.12150262280258198
-0.45187500000000003,-0.10742999341631368
-0.45150000000000001,-0.093357364030045381
-0.451125,-0.080289922457081969
-0.45074999999999998,-0.067892606092988472
-0.45037500000000003,-0.056500477542199862
-0.45000000000000001,-0.046113536804716138
-0.449625,-0.036396721276102301
-0.44924999999999998,-0.02768509356079335
-0.44887500000000002,-0.020648778867659229
-0.44850000000000001,-0.014282589383394995
-0.448125,-0.0095917129213055619
-0.44774999999999998,-0.0062410868769559591
-0.44737500000000002,-0.0049008364592161291
-0.44700000000000001,-0.0045657738547811716
-0.44662499999999999,-0.0062410868769559591
-0.44624999999999998,-0.0095917129213055619
-0.44587500000000002,-0.013947526778960023
-0.44550000000000001,-0.019978653658789286
-0.44512499999999999,-0.027014968351923435
-0.44474999999999998,-0.035056470858362471
-0.44437500000000002,-0.043768098573671421
-0.44400000000000001,-0.052814788893415315
-0.44362499999999999,-0.062531604422029125
-0.44324999999999998,-0.072248419950642961
-0.44287500000000002,-0.081965235479256771
-0.4425,-0.091011925799000665
-0.44212499999999999,-0.099723553514309615
-0.44174999999999998,-0.10810011862518359
-0.44137500000000002,-0.11547149592275271
-0.441,-0.12250781061588686
-0.44062499999999999,-0.12853893749571613
-0.44024999999999997,-0.1335648765622405
-0.43987500000000002,-0.13792069041989496
-0.4395,-0.14093625385980962
-0.43912499999999999,-0.1426115668819844
-0.43875000000000003,-0.14328169209085434
-0.43837500000000001,-0.14194144167311451
-0.438,-0.13859081562876491
-0.43762499999999999,-0.1335648765622405
-0.43725000000000003,-0.12619349926467141
-0.43687500000000001,-0.11748187154936246
-0.4365,-0.10675986820744376
-0.43612499999999998,-0.094027489238915324
-0.43575000000000003,-0.080624985061516941
-0.43537500000000001,-0.065547167861943756
-0.435,-0.049464162849065713
-0.43462499999999998,-0.032711032627317754
-0.43425000000000002,-0.016628027614439711
-0.43387500000000001,-0.00088008520599661133
-0.4335,0.013862669389141602
-0.43312499999999998,0.026595048357670056
-0.43275000000000002,0.037652114304023709
-0.43237500000000001,0.046698804623767617
-0.432,0.053064994108031838
-0.43162499999999998,0.057420807965686313
-0.43125000000000002,0.059096120987861107
-0.43087500000000001,0.058425995778991192
-0.43049999999999999,0.055075369734641597
-0.43012499999999998,0.048709180250377362
-0.42975000000000002,0.040332615139503383
-0.42937500000000001,0.030280737006454603
-0.42899999999999999,0.018218483246796063
-0.42862499999999998,0.0048159790693976939
-0.42825000000000002,-0.0099267755257405055
-0.42787500000000001,-0.025674717934183605
-0.42749999999999999,-0.04209278555149662
-0.42712499999999998,-0.058845915773244578
-0.42675000000000002,-0.075599045994992536
-0.426375,-0.092687238821175466
-0.42599999999999999,-0.10944036904292345
-0.42562499999999998,-0.1255233740558015
-0.42525000000000002,-0.14060119125537468
-0.424875,-0.15400369543277304
-0.42449999999999999,-0.1664010117968665
-0.42412499999999997,-0.17712301513878526
-0.42375000000000002,-0.18549958024965923
-0.423375,-0.1915307071294885
-0.42299999999999999,-0.1948813331738381
-0.42262499999999997,-0.19588652098714293
-0.42225000000000001,-0.19521639577827304
-0.421875,-0.19220083233835838
-0.42149999999999999,-0.18750995587626895
-0.42112500000000003,-0.1808087037875698
-0.42075000000000001,-0.17243213867669582
-0.420375,-0.16204519793921207
-0.41999999999999998,-0.14964788157511855
-0.41962500000000003,-0.1352401895844153
-0.41925000000000001,-0.11949224717597223
-0.418875,-0.1024040543497893
-0.41849999999999998,-0.084980798919171402
-0.41812500000000002,-0.067222480884118557
-0.41775000000000001,-0.049799225453500684
-0.417375,-0.033716220440622641
-0.41699999999999998,-0.018638403241049456
-0.41662500000000002,-0.0049008364592161291
-0.41625000000000001,0.0068263546960074528
-0.41587499999999999,0.017548358037926148
-0.41549999999999998,0.027265173566539971
-0.41512500000000002,0.034971613468544036
-0.41475000000000001,0.04133780295280827
-0.41437499999999999,0.046028679414897689
-0.41399999999999998,0.048374117645942405
-0.41362500000000002,0.048709180250377362
-0.41325000000000001,0.047033867228202575
-0.41287499999999999,0.043013115974983057
-0.41249999999999998,0.037987176908458667
-0.41212500000000002,0.030950862215324518
-0.41175,0.022574297104450539
-0.41137499999999999,0.013192544180271673
-0.41099999999999998,0.0024705408383529776
-0.41062500000000002,-0.0092566503168706044
-0.41025,-0.022324091889834002
-0.40987499999999999,-0.036396721276102301
-0.40949999999999998,-0.051139475871240514
-0.40912500000000002,-0.066217293070813699
-0.40875,-0.081295110270386856
-0.40837499999999999,-0.09637292746996004
-0.40799999999999997,-0.11078061946066328
-0.40762500000000002,-0.12451818624249661
-0.40725,-0.13658044000215513
-0.40687499999999999,-0.14730244334407383
-0.40649999999999997,-0.15567900845494781
-0.40612500000000001,-0.16204519793921207
-0.40575,-0.1667360744013015
-0.40537499999999999,-0.16941657523678116
-0.40500000000000003,-0.16975163784121611
-0.40462500000000001,-0.16740619961017139
-0.40425,-0.1633854483569519
-0.40387499999999998,-0.15701925887268769
-0.40350000000000003,-0.14897775636624866
-0.40312500000000001,-0.13926094083763485
-0.40275,-0.12820387489128116
-0.40237499999999998,-0.11580655852718766
-0.40200000000000002,-0.10206899174535433
-0.40162500000000001,-0.087326237150216118
-0.40125,-0.07191335734620799
-0.40087499999999998,-0.056500477542199862
-0.40050000000000002,-0.04075253513375679
-0.40012500000000001,-0.025674717934183605
-0.39974999999999999,-0.011267025943480363
-0.39937499999999998,0.0021354782339180201
-0.39900000000000002,0.014197731993576559
-0.39862500000000001,0.02424961012662534
-0.39824999999999999,0.032626175237499319
-0.39787499999999998,0.038322239512893624
-0.39750000000000002,0.042007928161678185
-0.39712500000000001,0.043013115974983057
-0.39674999999999999,0.041672865557243227
-0.39637499999999998,0.037987176908458667
-0.39600000000000002,0.031956050028629404
-0.395625,0.023579484917755411
-0.39524999999999999,0.013527606784706631
-0.39487499999999998,0.0014653530250481051
-0.39450000000000002,-0.012272213756785222
-0.394125,-0.027350030956358407
-0.39374999999999999,-0.043097973364801478
-0.39337499999999997,-0.059851103586549464
-0.39300000000000002,-0.076269171203862479
-0.392625,-0.092352176216740522
-0.39224999999999999,-0.10776505602074865
-0.39187499999999997,-0.12217274801145189
-0.39150000000000001,-0.13490512697998036
-0.391125,-0.14663231813520394
-0.39074999999999999,-0.15634913366381775
-0.39037499999999997,-0.16405557356582179
-0.39000000000000001,-0.17008670044565111
-0.389625,-0.17377238909443565
-0.38924999999999998,-0.17611782732548037
-0.38887500000000003,-0.17645288992991531
-0.38850000000000001,-0.17477757690774054
-0.388125,-0.17142695086339094
-0.38774999999999998,-0.1664010117968665
-0.38737500000000002,-0.15969975970816735
-0.38700000000000001,-0.15132319459729338
-0.386625,-0.14160637906867957
-0.38624999999999998,-0.13021425051789093
-0.38587500000000002,-0.11748187154936246
