,Time (s),Channel 2 (V)
0,-1.54125,-0.04935918285050237
1,-1.540875,-0.0548877158236792
2,-1.5405,-0.05974612358798612
3,-1.540125,-0.06359934353898952
4,-1.5397500000000002,-0.0666149069789014
5,-1.5393750000000002,-0.06862528260551162
6,-1.539,-0.0697980017210349
7,-1.538625,-0.06963047041881743
8,-1.53825,-0.06862528260551254
9,-1.537875,-0.06627984437446782
10,-1.5375,-0.06292921833011822
11,-1.537125,-0.05874093577468122
12,-1.53675,-0.05371499670815684
13,-1.536375,-0.048018932432762534
14,-1.536,-0.04182027425071578
15,-1.535625,-0.03545408476645155
16,-1.53525,-0.02841777007331742
17,-1.534875,-0.021381455380183267
18,-1.5345,-0.013842546780393324
19,-1.534125,-0.006471169482824078
20,-1.5337500000000002,0.0012352704191729846
21,-1.5333750000000002,0.008606647716742244
22,-1.533,0.015978025014314702
23,-1.532625,0.022846808405231362
24,-1.53225,0.029380529191713075
25,-1.531875,0.035076593467107384
26,-1.5315,0.039935001231414295
27,-1.531125,0.043955752484633806
28,-1.53075,0.046803784622330966
29,-1.530375,0.04847909764450575
30,-1.53,0.0489816915511582
31,-1.529625,0.04847909764450575
32,-1.52925,0.047138847226765916
33,-1.528875,0.04462587769350372
34,-1.5285,0.04127525164915216
35,-1.528125,0.03691943779149729
36,-1.5277500000000002,0.031725967422760154
37,-1.527375,0.02569484054293126
38,-1.527,0.01899358845422933
39,-1.526625,0.011622211156660227
40,-1.52625,0.003915771254656163
41,-1.525875,-0.0037906686473479015
42,-1.5255,-0.011329577247134485
43,-1.525125,-0.018868485846921062
44,-1.52475,-0.02623986314449017
45,-1.524375,-0.03327617783762432
46,-1.524,-0.03997742992632351
47,-1.523625,-0.04600855680615278
48,-1.52325,-0.051034495872677166
49,-1.522875,-0.0548877158236792
50,-1.5225,-0.057568216659159566
51,-1.5221250000000002,-0.0590759983791155
52,-1.5217500000000002,-0.0592435296813336
53,-1.521375,-0.0582383418680288
54,-1.521,-0.056227966241419035
55,-1.520625,-0.05321240280150441
56,-1.52025,-0.04935918285050237
57,-1.519875,-0.04483583769063042
58,-1.5195,-0.03964236732188855
59,-1.519125,-0.033778771744276764
60,-1.51875,-0.02724505095779506
61,-1.518375,-0.020041204962443424
62,-1.518,-0.01233476506043936
63,-1.517625,-0.004293262554000338
64,-1.51725,0.004083302556873641
65,-1.516875,0.012459867667751437
66,-1.5165,0.02083643277862527
67,-1.5161250000000002,0.028877935285056982
68,-1.5157500000000002,0.036751906489278605
69,-1.515375,0.043955752484633806
70,-1.515,0.05048947327111551
71,-1.514625,0.05618553754650982
72,-1.51425,0.0605413514041643
73,-1.513875,0.06372444614629641
74,-1.5135,0.06539975916847121
75,-1.513125,0.06523222786625373
76,-1.51275,0.06355691484407892
77,-1.512375,0.0605413514041643
78,-1.5119999999999998,0.05601800624429234
79,-1.511625,0.05082453587555047
80,-1.51125,0.04462587769350372
81,-1.510875,0.037757094302583706
82,-1.5105,0.03038571700501445
83,-1.5101250000000002,0.02267927710301739
84,-1.50975,0.014470243294357388
85,-1.509375,0.006261209485700879
86,-1.509,-0.002282886927390586
87,-1.508625,-0.010659452038264572
88,-1.50825,-0.018533423242486108
89,-1.507875,-0.02590480054005521
90,-1.5075,-0.03277358393097188
91,-1.507125,-0.03863717950858366
92,-1.50675,-0.04332805597067311
93,-1.506375,-0.046846213317240176
94,-1.506,-0.0490241202460674
95,-1.505625,-0.0498617767571548
96,-1.50525,-0.049191651548284886
97,-1.504875,-0.047013744619456205
98,-1.5045000000000002,-0.043830649877326995
99,-1.5041250000000002,-0.03964236732189046
100,-1.50375,-0.03444889695314668
101,-1.503375,-0.02841777007331742
102,-1.503,-0.021716517984618225
103,-1.502625,-0.014680203291484076
104,-1.50225,-0.007141294691697498
105,-1.501875,0.0005651452103065738
106,-1.5015,0.00810405381009316
107,-1.501125,0.015307899805444782
108,-1.50075,0.022176683196361447
109,-1.500375,0.02854287268062568
110,-1.5,0.03440646825823747
111,-1.499625,0.039767469929196816
112,-1.49925,0.044290815089070595
113,-1.498875,0.0483115663422898
114,-1.4985000000000002,0.05166219238663634
115,-1.4981250000000002,0.05451022452433372
116,-1.49775,0.056520600150944775
117,-1.497375,0.05769331926646714
118,-1.497,0.0580283818709021
119,-1.496625,0.05752578796424966
120,-1.49625,0.05585047494207486
121,-1.495875,0.053505036711030136
122,-1.4955,0.05015441066668056
123,-1.495125,0.04579859680902608
124,-1.49475,0.040437595138066725
125,-1.494375,0.03440646825823747
126,-1.494,0.02770521616953828
127,-1.493625,0.020836432778621614
128,-1.49325,0.013632586783266709
129,-1.492875,0.006428740787915234
130,-1.4925000000000002,-0.00044004260299518235
131,-1.492125,-0.007141294691697498
132,-1.49175,-0.013339952873744244
133,-1.491375,-0.019036017149138554
134,-1.491,-0.02406195621566294
135,-1.490625,-0.028250238771099924
136,-1.49025,-0.031768396117667005
137,-1.489875,-0.03444889695314668
138,-1.4895,-0.03612420997532148
139,-1.489125,-0.03696186648640888
140,-1.48875,-0.03696186648640888
141,-1.488375,-0.035956678673103995
142,-1.4880000000000002,-0.033946303046494236
143,-1.487625,-0.031098270908795488
144,-1.48725,-0.027580113562228035
145,-1.4868750000000002,-0.023224299704577518
146,-1.4865000000000002,-0.018198360638053437
147,-1.486125,-0.012669827664874319
148,-1.48575,-0.006973763389480012
149,-1.485375,-0.0011101678118682276
150,-1.485,0.004920959067961042
151,-1.484625,0.010952085947790312
152,-1.48425,0.01715074412983706
153,-1.483875,0.023516933614101287
154,-1.4835,0.029883123098365518
155,-1.483125,0.03624931258262974
156,-1.48275,0.042280439462459005
157,-1.482375,0.04780897243563584
158,-1.482,0.05283491150216023
159,-1.481625,0.05719072535981645
160,-1.48125,0.061043945310817964
161,-1.4808750000000002,0.06372444614629519
162,-1.4805,0.06539975916847045
163,-1.480125,0.06606988437734113
164,-1.47975,0.06539975916847121
165,-1.479375,0.06372444614629641
166,-1.479,0.06070888270638178
167,-1.478625,0.056520600150944775
168,-1.47825,0.051494661084420384
169,-1.477875,0.0456310655068086
170,-1.4775,0.039264876022544366
171,-1.477125,0.032228561329410224
172,-1.47675,0.025024715334058603
173,-1.476375,0.017653338036489497
174,-1.476,0.010449492041137869
175,-1.475625,0.0035807086502182344
176,-1.47525,-0.002953012136263472
177,-1.4748750000000002,-0.009486732922739242
178,-1.4745,-0.015350328500354003
179,-1.474125,-0.020878861473530824
180,-1.47375,-0.02590480054005521
181,-1.473375,-0.030260614397709686
182,-1.473,-0.033946303046494236
183,-1.472625,-0.036794335184191396
184,-1.47225,-0.03863717950858366
185,-1.471875,-0.03913977341523611
186,-1.4715,-0.0384696482063662
187,-1.471125,-0.03662680388197391
188,-1.47075,-0.03344370913984181
189,-1.470375,-0.029255426584404817
190,-1.47,-0.02389442491344271
191,-1.469625,-0.01786329803361307
192,-1.4692500000000002,-0.010994514642702652
193,-1.4688750000000002,-0.003623137345133775
194,-1.4685,0.004250833859091127
195,-1.468125,0.012459867667747626
196,-1.46775,0.020836432778621614
197,-1.467375,0.029380529191713075
198,-1.467,0.03775709430258706
199,-1.466625,0.045966128111243565
200,-1.46625,0.05400763061768258
201,-1.465875,0.0613790079152517
202,-1.4655,0.06808026000395087
203,-1.465125,0.07377632427934519
204,-1.46475,0.07846720074143462
205,-1.464375,0.0819853580880017
206,-1.464,0.08433079631904687
207,-1.463625,0.08533598413235136
208,-1.4632500000000002,0.0855035154345687
209,-1.462875,0.08433079631904694
210,-1.4625,0.08232042069243667
211,-1.462125,0.07930485725252201
212,-1.46175,0.0752841059993025
213,-1.461375,0.07025816693277813
214,-1.461,0.06422704005294887
215,-1.460625,0.057358256662032175
216,-1.46025,0.0498193480622456
217,-1.459875,0.041275251649154125
218,-1.4595,0.032228561329410224
219,-1.459125,0.022846808405231362
220,-1.45875,0.013297524178835028
221,-1.458375,0.0035807086502212047
222,-1.4580000000000002,-0.0059685755761794065
223,-1.457625,-0.01535032850035789
224,-1.4572500000000002,-0.02389442491344157
225,-1.456875,-0.031768396117667005
226,-1.4565,-0.03880471081080116
227,-1.456125,-0.044668306388412946
228,-1.45575,-0.04952671415271985
229,-1.455375,-0.05287734019706944
230,-1.455,-0.05472018452146172
231,-1.454625,-0.05522277842811416
232,-1.45425,-0.05421759061480928
233,-1.453875,-0.05170462108154708
234,-1.4535,-0.047851401130545035
235,-1.453125,-0.042992993366238144
236,-1.45275,-0.03712939778862635
237,-1.452375,-0.030093083095488624
238,-1.452,-0.022219111891266935
239,-1.4516250000000002,-0.014010078082617894
240,-1.4512500000000002,-0.005130919065091778
241,-1.450875,0.003915771254656163
242,-1.4505,0.012794930272182585
243,-1.450125,0.02167408928970901
244,-1.44975,0.03038571700501795
245,-1.449375,0.038427219511456966
246,-1.449,0.045966128111243565
247,-1.448625,0.05283491150216023
248,-1.44825,0.058866038381989505
249,-1.447875,0.06355691484407892
250,-1.4475,0.06690754088842853
251,-1.447125,0.06891791651503827
252,-1.44675,0.06942051042169073
253,-1.446375,0.06875038521281997
254,-1.446,0.06690754088842724
255,-1.4456250000000002,0.06405950875073266
256,-1.44525,0.0605413514041659
257,-1.444875,0.05601800624429234
258,-1.4445,0.05099206717776796
259,-1.444125,0.045296002902373636
260,-1.44375,0.038929813418109416
261,-1.443375,0.032228561329410224
262,-1.443,0.02535977793849356
263,-1.442625,0.01832346324535942
264,-1.44225,0.01111961725000779
265,-1.441875,0.004418365161308606
266,-1.4415,-0.0019478243229556211
267,-1.441125,-0.007978951202784898
268,-1.44075,-0.01350748417596172
269,-1.440375,-0.018198360638053055
270,-1.4400000000000002,-0.022386643193486235
271,-1.4396250000000002,-0.02623986314448842
272,-1.43925,-0.029590489188839775
273,-1.438875,-0.03227099002431945
274,-1.4385,-0.034616428255364165
275,-1.438125,-0.03629174127753895
276,-1.43775,-0.03729692909084384
277,-1.437375,-0.03746446039306131
278,-1.437,-0.03662680388197391
279,-1.436625,-0.03478395955758164
280,-1.43625,-0.031935927419884484
281,-1.435875,-0.02841777007331742
282,-1.4355,-0.02406195621566294
283,-1.435125,-0.018868485846921062
284,-1.43475,-0.013507484175959126
285,-1.434375,-0.0078114199005648215
286,-1.4340000000000002,-0.002115355625175697
287,-1.433625,0.003413177348001212
288,-1.43325,0.008606647716745595
289,-1.432875,0.013632586783269984
290,-1.4325,0.01815593194314194
291,-1.432125,0.022176683196361447
292,-1.43175,0.025694840542928518
293,-1.431375,0.02854287268062568
294,-1.431,0.030888310911670394
295,-1.430625,0.03239609263162771
296,-1.43025,0.03323374914271511
297,-1.429875,0.033066217840497625
298,-1.4295,0.032228561329410224
299,-1.429125,0.030218185702800476
300,-1.42875,0.027370153565101567
301,-1.428375,0.023516933614099
302,-1.4280000000000002,0.018490994547579184
303,-1.427625,0.01245986766775037
304,-1.42725,0.005591084276830964
305,-1.426875,-0.0021153556251731075
306,-1.4265,-0.010324389433829614
307,-1.426125,-0.018700954544703597
308,-1.42575,-0.027077519655577573
309,-1.425375,-0.035119022162016594
310,-1.425,-0.042992993366238144
311,-1.424625,-0.050531901966024716
312,-1.42425,-0.0574006853569414
313,-1.423875,-0.06359934353898815
314,-1.4235,-0.06912787651216498
315,-1.423125,-0.07381875297425443
316,-1.42275,-0.0775044416230401
317,-1.4223750000000002,-0.08001741115630001
318,-1.4220000000000002,-0.0815251928762578
319,-1.421625,-0.08186025548069342
320,-1.42125,-0.08102259896960604
321,-1.420875,-0.07901222334299626
322,-1.4205,-0.0763317225075166
323,-1.420125,-0.07247850255651456
324,-1.41975,-0.06795515739664262
325,-1.419375,-0.06276168702790075
326,-1.419,-0.057065622752506436
327,-1.418625,-0.0508669645704597
328,-1.41825,-0.044165712481760495
329,-1.417875,-0.03729692909084384
330,-1.4175,-0.030093083095492208
331,-1.417125,-0.022721705797919826
332,-1.41675,-0.015517859802568429
333,-1.4163750000000002,-0.008816607713875331
334,-1.416,-0.0027854808340457646
335,-1.415625,0.002407989534698847
336,-1.41525,0.006763803392353315
337,-1.414875,0.01028196073892039
338,-1.4145,0.012962461574400064
339,-1.414125,0.014805305898792344
340,-1.41375,0.015810493712097223
341,-1.413375,0.015475431107662259
342,-1.413,0.013967649387704943
343,-1.412625,0.010952085947790312
344,-1.41225,0.006763803392353315
345,-1.411875,0.0012352704191764888
346,-1.4115,-0.005465981669522696
347,-1.411125,-0.013172421571530644
348,-1.41075,-0.021716517984622416
349,-1.4103750000000002,-0.030930739606575414
350,-1.41,-0.0403124925307542
351,-1.409625,-0.0498617767571548
352,-1.40925,-0.05941106098355114
353,-1.408875,-0.06862528260551254
354,-1.4085,-0.07750444162303896
355,-1.408125,-0.08571347543169547
356,-1.40775,-0.09308485272926456
357,-1.407375,-0.09961857351574627
358,-1.4069999999999998,-0.20962408776897629
359,-1.406625,-0.21766559027541527
360,-1.40625,-0.22369671715524456
361,-1.405875,-0.2267122805951592
362,-1.4055,-0.2267122805951592
363,-1.405125,-0.22403177975967709
364,-1.4047500000000002,-0.21867077808872265
365,-1.4043750000000002,-0.21163446339558925
366,-1.404,-0.20292283568027708
367,-1.403625,-0.09643547877361418
368,-1.40325,-0.09090694580043733
369,-1.402875,-0.08504335022282557
370,-1.4025,-0.07884469204077879
371,-1.402125,-0.07264603385873206
372,-1.40175,-0.06627984437446782
373,-1.401375,-0.05974612358798612
374,-1.401,-0.05337993410372188
375,-1.400625,-0.046846213317240176
376,-1.40025,-0.040480023832975935
377,-1.399875,-0.03428136565092921
378,-1.3995,-0.02808270746887979
379,-1.399125,-0.022219111891268156
380,-1.3987500000000002,-0.01669057891809635
381,-1.398375,-0.01183217115378914
382,-1.398,-0.007476357296132455
383,-1.397625,-0.0037906686473479015
384,-1.39725,-0.0011101678118682276
385,-1.396875,0.0007326765125240526
386,-1.3965,0.001737864325828932
387,-1.396125,0.002072926930263889
388,-1.39575,0.001737864325828932
389,-1.395375,0.0007326765125240526
390,-1.395,-0.0009426365096507489
391,-1.394625,-0.0036231373451304227
392,-1.39425,-0.007141294691697498
393,-1.393875,-0.011664639851569444
394,-1.3935,-0.017025641522531536
395,-1.393125,-0.023056768402361042
396,-1.3927500000000002,-0.029590489188836805
397,-1.392375,-0.03645927257975643
398,-1.392,-0.04332805597067311
399,-1.391625,-0.05036437066380725
400,-1.39125,-0.0574006853569414
401,-1.390875,-0.06410193744564058
402,-1.3905,-0.07080318953433977
403,-1.390125,-0.07683431641416903
404,-1.38975,-0.08236284938734587
405,-1.389375,-0.08738878845387027
406,-1.389,-0.09157707100930723
407,-1.388625,-0.09459263444922188
408,-1.38825,-0.0967705413780491
409,-1.387875,-0.09811079179578913
410,-1.3875,-0.09844585440022367
411,-1.3871250000000002,-0.09794326049357167
412,-1.38675,-0.09660301007583223
413,-1.386375,-0.09425757184478692
414,-1.386,-0.09124200840487227
415,-1.385625,-0.08755631975608774
416,-1.38525,-0.08303297459621578
417,-1.384875,-0.0780070355296914
418,-1.3845,-0.07264603385873206
419,-1.384125,-0.06711750088555522
420,-1.38375,-0.0614214366101609
421,-1.383375,-0.055892903636984084
422,-1.383,-0.05036437066380725
423,-1.382625,-0.0450033689928479
424,-1.38225,-0.03997742992632351
425,-1.381875,-0.03545408476644965
426,-1.3815,-0.03126580221101288
427,-1.3811250000000002,-0.027580113562231688
428,-1.38075,-0.02489961272675156
429,-1.380375,-0.022889237100140583
430,-1.38,-0.022051580589053186
431,-1.379625,-0.022051580589053186
432,-1.37925,-0.022889237100140583
433,-1.378875,-0.024732081424532856
434,-1.3785,-0.027580113562230016
435,-1.378125,-0.03126580221101456
436,-1.37775,-0.03578914737088652
437,-1.377375,-0.04098261773962838
438,-1.3769999999999998,-0.046846213317240176
439,-1.376625,-0.05321240280150441
440,-1.37625,-0.05974612358798612
441,-1.375875,-0.06611231307225307
442,-1.3755,-0.07214343995208221
443,-1.3751250000000002,-0.07783950422747131
444,-1.37475,-0.08286544329399831
445,-1.374375,-0.08755631975608774
446,-1.374,-0.09174460231152473
447,-1.373625,-0.0952627596580918
448,-1.37325,-0.09827832309800644
449,-1.372875,-0.20124752265810233
450,-1.3725,-0.20426308609801688
451,-1.372125,-0.2056033365157568
452,-1.37175,-0.2056033365157568
453,-1.371375,-0.20426308609801688
454,-1.371,-0.20158258526253725
455,-1.370625,-0.09878091700465888
456,-1.37025,-0.09626794747139532
457,-1.369875,-0.09325238403148027
458,-1.3695000000000002,-0.08939916408048176
459,-1.369125,-0.08504335022282754
460,-1.36875,-0.07984987985408368
461,-1.368375,-0.07432134688090683
462,-1.368,-0.06845775130329507
463,-1.367625,-0.06242662442346579
464,-1.36725,-0.056563028845854
465,-1.366875,-0.051034495872677166
466,-1.3665,-0.045673494201717825
467,-1.366125,-0.04098261773962838
468,-1.36575,-0.03662680388197391
469,-1.365375,-0.03277358393097188
470,-1.365,-0.02942295788662229
471,-1.364625,-0.026742457051142615
472,-1.36425,-0.024732081424532242
473,-1.363875,-0.023391831006792874
474,-1.3635000000000002,-0.023056768402358218
475,-1.363125,-0.02355936230901027
476,-1.36275,-0.024899612726750345
477,-1.362375,-0.027077519655577573
478,-1.362,-0.030093083095492208
479,-1.361625,-0.033778771744276764
480,-1.36125,-0.03796705429971376
481,-1.360875,-0.042490399459585694
482,-1.3605,-0.047516338526110084
483,-1.360125,-0.05287734019706944
484,-1.35975,-0.05840587317024627
485,-1.359375,-0.06410193744564058
486,-1.359,-0.0697980017210349
487,-1.358625,-0.07532653469421173
488,-1.35825,-0.08035247376073848
489,-1.357875,-0.0855459441294801
490,-1.3575000000000002,-0.09023682059156526
491,-1.357125,-0.09459263444922188
492,-1.35675,-0.0986133857024414
493,-1.356375,-0.203928023493582
494,-1.356,-0.20928902516454131
495,-1.355625,-0.21263965120889092
496,-1.35525,-0.21431496423106566
497,-1.354875,-0.21364483902219575
498,-1.3545,-0.2109643381867161
499,-1.354125,-0.20627346172462668
500,-1.35375,-0.09978610481796374
501,-1.353375,-0.09543029096030926
502,-1.3530000000000002,-0.0902368205915674
503,-1.352625,-0.08420569371173493
504,-1.35225,-0.07716937901860041
505,-1.3518750000000002,-0.06929540781438603
506,-1.3515,-0.060751311401294875
507,-1.351125,-0.05203968368598205
508,-1.35075,-0.04282546206402066
509,-1.350375,-0.033946303046494236
510,-1.35,-0.0252346753311853
511,-1.349625,-0.017360704126963746
512,-1.34925,-0.010156858131612129
513,-1.348875,-0.0037906686473479015
514,-1.3485,0.0014028017213939675
515,-1.348125,0.005423552974613478
516,-1.34775,0.008606647716745595
517,-1.347375,0.010617023343355354
518,-1.347,0.011622211156660227
519,-1.346625,0.011454679854442141
520,-1.34625,0.010114429436701768
521,-1.3458750000000002,0.007601459903441859
522,-1.3455,0.004250833859092649
523,-1.345125,-0.00010497999856334818
524,-1.34475,-0.005130919065087738
525,-1.344375,-0.011329577247134485
526,-1.344,-0.018365891940268636
527,-1.343625,-0.02623986314449017
528,-1.34325,-0.034616428255364165
529,-1.342875,-0.04349558727289058
530,-1.3425,-0.05254227759263448
531,-1.342125,-0.0614214366101609
532,-1.34175,-0.06996553302325237
533,-1.341375,-0.07817456683190888
534,-1.341,-0.0853784128272605
535,-1.340625,-0.09174460231152708
536,-1.3402500000000002,-0.09693807268026425
537,-1.339875,-0.20158258526253373
538,-1.3395,-0.20627346172462668
539,-1.339125,-0.20895396256010634
540,-1.33875,-0.2086188999556714
541,-1.338375,-0.2059383991201917
542,-1.338,-0.2005773974492324
543,-1.337625,-0.09660301007583164
544,-1.33725,-0.09174460231152473
545,-1.336875,-0.08604853803613041
546,-1.3365,-0.0795148172496487
547,-1.336125,-0.07247850255651456
548,-1.33575,-0.06493959395672798
549,-1.335375,-0.05723315405472393
550,-1.335,-0.04919165154828131
551,-1.334625,-0.041317680344059915
552,-1.3342500000000002,-0.03377877174428019
553,-1.333875,-0.0262398631444936
554,-1.3335,-0.019203548451356037
555,-1.333125,-0.0128373589670918
556,-1.33275,-0.006638700785045054
557,-1.332375,-0.0011101678118682276
558,-1.332,0.004250833859091127
559,-1.331625,0.009109241623398032
560,-1.33125,0.013632586783269984
561,-1.330875,0.017820869338706975
562,-1.3305,0.021171495383056568
563,-1.330125,0.024187058822971202
564,-1.32975,0.02636496575179844
565,-1.329375,0.0275376848673208
566,-1.329,0.027872747471755527
567,-1.328625,0.027370153565102636
568,-1.3282500000000002,0.025862371845146687
569,-1.327875,0.023014339707450142
570,-1.3275,0.018826057152011855
571,-1.327125,0.013297524178835028
572,-1.32675,0.006596272090135836
573,-1.326375,-0.0009426365096507489
574,-1.326,-0.009319201620524728
575,-1.325625,-0.018198360638051154
576,-1.32525,-0.027580113562230016
577,-1.324875,-0.03729692909084384
578,-1.3245,-0.04667868201502269
579,-1.324125,-0.05606043493920156
580,-1.32375,-0.06493959395672798
581,-1.323375,-0.072981096463167
582,-1.3230000000000002,-0.0800174111563039
583,-1.3226250000000002,-0.08604853803612766
584,-1.32225,-0.09090694580043512
585,-1.321875,-0.0944251031470044
586,-1.3215,-0.0967705413780491
587,-1.321125,-0.09760819788913652
588,-1.32075,-0.09744066658691905
589,-1.320375,-0.0961004161691792
590,-1.32,-0.09341991533369952
591,-1.319625,-0.08990175798713246
592,-1.31925,-0.08554594412947797
593,-1.318875,-0.08035247376073612
594,-1.3185,-0.07448887818312433
595,-1.318125,-0.0681226886988601
596,-1.31775,-0.061253905307943425
597,-1.317375,-0.05438512191702348
598,-1.317,-0.04718127592167208
599,-1.3166250000000002,-0.04048002383297898
600,-1.31625,-0.033946303046497206
601,-1.315875,-0.027747644864447488
602,-1.3155,-0.021884049286835714
603,-1.315125,-0.016690578918093835
604,-1.31475,-0.012502296362656845
605,-1.314375,-0.009319201620524728
606,-1.314,-0.007308825993914969
607,-1.313625,-0.006471169482827582
608,-1.31325,-0.00680623208726254
609,-1.312875,-0.008481545109437327
610,-1.3125,-0.010826983340482044
611,-1.312125,-0.014345140687049118
612,-1.31175,-0.018868485846921062
613,-1.311375,-0.024229487517883168
614,-1.311,-0.030260614397712736
615,-1.3106250000000002,-0.036961866486405835
616,-1.31025,-0.04416571248175723
617,-1.309875,-0.05203968368598205
618,-1.3095,-0.05991365489020359
619,-1.309125,-0.06795515739664262
620,-1.30875,-0.07549406599642919
621,-1.308375,-0.08236284938734587
622,-1.308,-0.0887290388716101
623,-1.307625,-0.0944251031470044
624,-1.30725,-0.09894844830687635
625,-1.306875,-0.2059383991201917
626,-1.3065,-0.21196952600002103
627,-1.306125,-0.21632533985767546
628,-1.30575,-0.2183357154842852
629,-1.305375,-0.218335715484284
630,-1.3050000000000002,-0.2156552146488068
631,-1.304625,-0.21062927558228345
632,-1.30425,-0.20325789828471208
633,-1.303875,-0.09660301007583164
634,-1.3035,-0.0904043518937849
635,-1.303125,-0.08336803720065075
636,-1.30275,-0.07582912860086416
637,-1.302375,-0.06795515739664262
638,-1.3019999999999998,-0.060081186192421074
639,-1.301625,-0.05237474629041701
640,-1.30125,-0.0450033689928479
641,-1.300875,-0.03779952299749626
642,-1.3005,-0.030930739606579605
643,-1.300125,-0.0243970188200979
644,-1.29975,-0.018365891940266044
645,-1.299375,-0.01266982766487203
646,-1.2990000000000002,-0.007643888598352212
647,-1.298625,-0.003120543438480037
648,-1.29825,0.0003976139080890881
649,-1.297875,0.0030781147435687693
650,-1.2975,0.004753427765743563
651,-1.297125,0.005423552974613478
652,-1.29675,0.005088490370178521
653,-1.296375,0.0037482399524386826
654,-1.296,0.0015703330236114465
655,-1.295625,-0.0011101678118682276
656,-1.29525,-0.004628325158435302
657,-1.294875,-0.00898413901608977
658,-1.2945,-0.013842546780396675
659,-1.294125,-0.01937107975357351
660,-1.29375,-0.025234675331188117
661,-1.293375,-0.031433333513234935
662,-1.293,-0.037799522997493375
663,-1.292625,-0.044165712481760495
664,-1.29225,-0.050196839361589765
665,-1.291875,-0.05606043493920156
666,-1.2915,-0.06175649921459586
667,-1.291125,-0.06694996958333774
668,-1.29075,-0.07197590864986213
669,-1.290375,-0.07666678511195153
670,-1.29,-0.08068753636517106
671,-1.289625,-0.08420569371173814
672,-1.28925,-0.08688619454721783
673,-1.288875,-0.08856150756939263
674,-1.2885,-0.08906410147604504
675,-1.288125,-0.08856150756939195
676,-1.28775,-0.08705372584943408
677,-1.2873750000000002,-0.08437322501395683
678,-1.287,-0.08085506766739012
679,-1.286625,-0.07666678511195153
680,-1.28625,-0.07164084604542717
681,-1.285875,-0.06594478177003286
682,-1.2855,-0.05974612358798612
683,-1.285125,-0.05304487149928692
684,-1.28475,-0.046176088108370254
685,-1.284375,-0.03930730471745359
686,-1.284,-0.032606052628754406
687,-1.283625,-0.02590480054005521
688,-1.28325,-0.019706142358008463
689,-1.282875,-0.013675015478179205
690,-1.2825,-0.00814648250500237
691,-1.282125,-0.0031205434384758463
692,-1.28175,0.0015703330236132745
693,-1.2813750000000002,0.005591084276829136
694,-1.281,0.00894171032117903
695,-1.280625,0.011454679854442748
696,-1.28025,0.012962461574400064
697,-1.279875,0.013465055481052507
698,-1.2795,0.012962461574400064
699,-1.279125,0.011789742458877704
700,-1.27875,0.009444304227832996
701,-1.278375,0.0060936781834834
702,-1.278,0.002072926930263889
703,-1.277625,-0.0029530121362605012
704,-1.27725,-0.008816607713872285
705,-1.276875,-0.015517859802571478
706,-1.2765,-0.0227217057979231
707,-1.276125,-0.030093083095495705
708,-1.27575,-0.037799522997499696
709,-1.275375,-0.04533843159727943
710,-1.275,-0.05270980889485196
711,-1.274625,-0.059578592285768624
712,-1.27425,-0.06611231307225034
713,-1.273875,-0.07197590864986213
714,-1.2735,-0.07700184771638653
715,-1.273125,-0.0811901302718235
716,-1.27275,-0.08454075631617311
717,-1.272375,-0.08671866324500033
718,-1.272,-0.08772385105830523
719,-1.271625,-0.08755631975608774
720,-1.27125,-0.08671866324500033
721,-1.270875,-0.08504335022282557
722,-1.2705,-0.08269791199177931
723,-1.270125,-0.07934728594742947
724,-1.2697500000000002,-0.07549406599643094
725,-1.269375,-0.07097072083655931
726,-1.269,-0.06594478177003286
727,-1.268625,-0.0605837800990735
728,-1.26825,-0.0548877158236792
729,-1.267875,-0.0490241202460674
730,-1.2675,-0.042992993366238144
731,-1.267125,-0.03712939778862635
732,-1.26675,-0.03126580221101456
733,-1.266375,-0.025402206633402785
734,-1.266,-0.01987367366022595
735,-1.265625,-0.014680203291484076
736,-1.26525,-0.009821795527177171
737,-1.264875,-0.005633512971740182
738,-1.2645,-0.0019478243229541737
739,-1.264125,0.0012352704191776315
740,-1.2637500000000002,0.0037482399524375407
741,-1.263375,0.005591084276830126
742,-1.263,0.006763803392353315
743,-1.262625,0.007266397299005758
744,-1.26225,0.006931334694570801
745,-1.261875,0.005758615579048443
746,-1.2615,0.0037482399524386826
747,-1.261125,0.00106773911695901
748,-1.26075,-0.0024504182296080645
749,-1.260375,-0.006471169482827582
750,-1.26,-0.011162045944917
751,-1.259625,-0.01602045370922392
752,-1.25925,-0.021381455380183267
753,-1.258875,-0.02724505095779506
754,-1.2585,-0.03310864653540952
755,-1.258125,-0.03897224211302122
756,-1.25775,-0.04466830638841035
757,-1.257375,-0.05036437066380725
758,-1.257,-0.05555784103254912
759,-1.256625,-0.06024871749463854
760,-1.25625,-0.06410193744564058
761,-1.255875,-0.06694996958333774
762,-1.2555,-0.06912787651216498
763,-1.255125,-0.07030059562768734
764,-1.25475,-0.07063565823212227
765,-1.254375,-0.07013306432546984
766,-1.254,-0.06862528260551254
767,-1.253625,-0.06627984437446782
768,-1.25325,-0.0630967496323357
769,-1.252875,-0.05890846707689644
770,-1.2525,-0.05388252801037166
771,-1.2521250000000002,-0.0480189324327652
772,-1.25175,-0.04148521164628379
773,-1.251375,-0.034616428255364165
774,-1.251,-0.02741258226001253
775,-1.250625,-0.020041204962443424
776,-1.25025,-0.013004890269309288
777,-1.249875,-0.005801044273957654
778,-1.2495,0.0009002078147415313
779,-1.249125,0.006931334694570801
780,-1.24875,0.012627398969965105
781,-1.248375,0.017485806734272018
782,-1.248,0.021003964080839092
783,-1.247625,0.02318187100966633
784,-1.24725,0.023684464916318763
785,-1.246875,0.023014339707448005
786,-1.2465,0.021171495383055048
787,-1.246125,0.0178208693387085
788,-1.24575,0.013465055481054488
789,-1.245375,0.00810405381009316
790,-1.245,0.0019053956280464105
791,-1.244625,-0.004963387762870253
792,-1.24425,-0.012502296362656845
793,-1.243875,-0.020376267566878395
794,-1.2435,-0.028752832677752374
795,-1.243125,-0.03729692909084384
796,-1.24275,-0.0458410255039353
797,-1.242375,-0.0540500593125918
798,-1.242,-0.06209156181903084
799,-1.241625,-0.06963047041881743
800,-1.24125,-0.0763317225075166
801,-1.240875,-0.08236284938734817
802,-1.2405000000000002,-0.08738878845386798
803,-1.240125,-0.09157707100930536
804,-1.23975,-0.0944251031470044
805,-1.239375,-0.0961004161691792
806,-1.239,-0.09643547877361418
807,-1.238625,-0.09559782226252675
808,-1.23825,-0.09375497793813446
809,-1.237875,-0.09073941449821983
810,-1.2375,-0.08655113194278287
811,-1.237125,-0.08135766157404098
812,-1.23675,-0.07532653469421173
813,-1.236375,-0.06862528260551254
814,-1.236,-0.0614214366101609
815,-1.235625,-0.05371499670815684
816,-1.23525,-0.04567349420171424
817,-1.234875,-0.037799522997492604
818,-1.2345000000000002,-0.029758020491060907
819,-1.234125,-0.022219111891274096
820,-1.23375,-0.015182797198136519
821,-1.233375,-0.008481545109437327
822,-1.233,-0.0026179495318255433
823,-1.232625,0.002743052139133805
824,-1.23225,0.007266397299005758
825,-1.231875,0.010952085947790312
826,-1.2315,0.013800118085487464
827,-1.231125,0.015810493712097223
828,-1.23075,0.01715074412983706
829,-1.230375,0.017653338036489497
830,-1.23,0.01715074412983706
831,-1.229625,0.015978025014314702
832,-1.22925,0.013967649387703498
833,-1.228875,0.010784554645571005
834,-1.2285,0.006763803392355144
835,-1.228125,0.0014028017213964057
836,-1.22775,-0.004795856460652781
837,-1.227375,-0.012167233758221886
838,-1.227,-0.020041204962443424
839,-1.226625,-0.028250238771099924
840,-1.22625,-0.03662680388197391
841,-1.225875,-0.044668306388412946
842,-1.2255,-0.05287734019706944
843,-1.225125,-0.060416248796856024
844,-1.22475,-0.06728503218777271
845,-1.224375,-0.07365122167203693
846,-1.224,-0.07917975464521376
847,-1.223625,-0.08420569371173814
848,-1.22325,-0.0885615075693943
849,-1.2228750000000002,-0.09224719621817548
850,-1.2225,-0.09509522835587304
851,-1.222125,-0.0969380726802666
852,-1.22175,-0.097775729191354
853,-1.221375,-0.09744066658691905
854,-1.221,-0.09593288486696172
855,-1.220625,-0.09308485272926456
856,-1.22025,-0.08906410147604504
857,-1.219875,-0.08403816240952067
858,-1.2195,-0.0780070355296914
859,-1.219125,-0.07097072083655727
860,-1.21875,-0.06326428093455319
861,-1.218375,-0.05522277842811416
862,-1.218,-0.046846213317240176
863,-1.217625,-0.03846964820636231
864,-1.21725,-0.029925551793270926
865,-1.2168750000000002,-0.021548986682404545
866,-1.2165,-0.013675015478182784
867,-1.216125,-0.006136106878392611
868,-1.21575,0.0007326765125240526
869,-1.215375,0.006931334694570801
870,-1.215,0.012459867667747626
871,-1.214625,0.01731827543205454
872,-1.21425,0.021171495383056568
873,-1.213875,0.02452212142740617
874,-1.2135,0.02686755965845088
875,-1.213125,0.02820781007619072
876,-1.21275,0.028710403982843156
877,-1.212375,0.02804027877397324
878,-1.212,0.02653249705401592
879,-1.211625,0.024187058822969603
880,-1.21125,0.020668901476402157
881,-1.210875,0.01631308761875164
882,-1.2105,0.011119617250010152
883,-1.210125,0.004920959067961042
884,-1.20975,-0.0017802930207381426
885,-1.209375,-0.009151670318307256
886,-1.209,-0.01719317282474628
887,-1.208625,-0.0252346753311853
888,-1.20825,-0.03327617783762432
889,-1.207875,-0.04098261773962838
890,-1.2075,-0.04818646373498002
891,-1.207125,-0.05472018452146172
892,-1.20675,-0.06024871749463854
893,-1.206375,-0.06510712525894546
894,-1.206,-0.06845775130329507
895,-1.205625,-0.07097072083655794
896,-1.2052500000000002,-0.07247850255651388
897,-1.204875,-0.07264603385873197
898,-1.2045,-0.07214343995207963
899,-1.204125,-0.07046812692990481
900,-1.20375,-0.0681226886988601
901,-1.203375,-0.06527465656116294
902,-1.203,-0.06209156181903084
903,-1.202625,-0.05840587317024627
904,-1.20225,-0.05455265321924424
905,-1.201875,-0.050196839361589765
906,-1.2015,-0.045505962899500325
907,-1.201125,-0.04098261773962838
908,-1.20075,-0.03612420997532148
909,-1.200375,-0.03143333351323205
910,-1.2,-0.026909988353357967
911,-1.199625,-0.02221911189126861
912,-1.19925,-0.01769576673140076
913,-1.198875,-0.01317242157152882
914,-1.1985,-0.009151670318307256
915,-1.198125,-0.005298450367305224
916,-1.19775,-0.0021153556251731075
917,-1.197375,0.0003976139080890881
918,-1.197,0.0019053956280464105
919,-1.196625,0.0030781147435687693
920,-1.19625,0.0034131773480037264
921,-1.195875,0.0030781147435687693
922,-1.1955,0.0019053956280464105
923,-1.195125,6.255130365413057e-05
924,-1.19475,-0.0026179495318255433
925,-1.194375,-0.005968575576175139
926,-1.194,-0.010156858131614262
927,-1.193625,-0.014847734593703846
928,-1.19325,-0.019873673660223662
929,-1.192875,-0.025569737935620257
930,-1.1925,-0.03143333351323205
931,-1.192125,-0.03746446039306131
932,-1.19175,-0.04366311857510806
933,-1.191375,-0.04969424545493734
934,-1.191,-0.0557253723347666
935,-1.190625,-0.0614214366101609
936,-1.19025,-0.06661490697890278
937,-1.189875,-0.07097072083655727
938,-1.1895,-0.07482394078755927
939,-1.189125,-0.07767197292525643
940,-1.18875,-0.0795148172496487
941,-1.188375,-0.08035247376073612
942,-1.188,-0.07984987985408307
943,-1.1876250000000002,-0.07850962943634446
944,-1.18725,-0.07599665990308277
945,-1.186875,-0.07281356516094953
946,-1.1865,-0.06845775130329507
947,-1.186125,-0.06343181223677066
948,-1.18575,-0.057735747961376364
949,-1.185375,-0.051537089779329616
950,-1.185,-0.044668306388412946
951,-1.184625,-0.037631991695278796
952,-1.18425,-0.030093083095492208
953,-1.183875,-0.02238664319348814
954,-1.1835,-0.014847734593701563
955,-1.183125,-0.007643888598349927
956,-1.18275,-0.0006075739052157844
957,-1.182375,0.005758615579051109
958,-1.182,0.011622211156662588
959,-1.181625,0.01681568152539973
960,-1.18125,0.021003964080837188
961,-1.180875,0.02435459012518868
962,-1.1805,0.0267000283562334
963,-1.180125,0.027872747471755756
964,-1.17975,0.02770521616953828
965,-1.179375,0.02653249705401592
966,-1.179,0.024187058822971202
967,-1.178625,0.021171495383056568
968,-1.17825,0.01715074412983706
969,-1.177875,0.01212480506331267
970,-1.1775,0.006428740787918358
971,-1.177125,0.00023008260587160934
972,-1.17675,-0.006638700785045054
973,-1.176375,-0.01384254678039995
974,-1.176,-0.021046392775751658
975,-1.175625,-0.02841777007331406
976,-1.17525,-0.03545408476645155
977,-1.174875,-0.042490399459585694
978,-1.1745,-0.04935918285050237
979,-1.174125,-0.05606043493920156
980,-1.17375,-0.0622590931212483
981,-1.173375,-0.06778762609442512
982,-1.173,-0.07231097125429707
983,-1.172625,-0.07582912860086416
984,-1.17225,-0.07817456683190888
985,-1.171875,-0.07934728594743123
986,-1.1715,-0.07984987985408368
987,-1.171125,-0.07917975464521376
988,-1.17075,-0.07750444162303782
989,-1.170375,-0.07499147208977523
990,-1.1700000000000002,-0.0716408460454287
991,-1.169625,-0.06711750088555728
992,-1.16925,-0.06192403051681334
993,-1.168875,-0.056227966241419035
994,-1.1685,-0.0498617767571548
995,-1.168125,-0.04282546206402066
996,-1.16775,-0.03545408476645155
997,-1.167375,-0.027915176166664973
998,-1.167,-0.020376267566878395
999,-1.166625,-0.013004890269309288
1000,-1.16625,-0.005968575576175139
1001,-1.165875,0.0003976139080890881
1002,-1.1655,0.006428740787918358
1003,-1.165125,0.011789742458877704
1004,-1.16475,0.01631308761875141
1005,-1.164375,0.020166307569752986
1006,-1.164,0.02301433970744755
1007,-1.163625,0.025024715334057687
1008,-1.16325,0.026029903147363486
1009,-1.162875,0.026197434449580958
1010,-1.1625,0.02535977793849356
1011,-1.162125,0.023684464916318763
1012,-1.16175,0.021003964080839092
1013,-1.161375,0.01731827543205454
1014,-1.161,0.012627398969965105
1015,-1.160625,0.006931334694570801
1016,-1.16025,0.0003976139080890881
1017,-1.159875,-0.006973763389480012
1018,-1.1595,-0.015015265895919035
1019,-1.159125,-0.023391831006793026
1020,-1.15875,-0.03210345872210577
1021,-1.158375,-0.040480023832979675
1022,-1.158,-0.048689057641628716
1023,-1.157625,-0.05639549754363653
1024,-1.15725,-0.06292921833011822
1025,-1.156875,-0.06862528260551254
1026,-1.1565,-0.07331615906760197
1027,-1.156125,-0.07666678511195153
1028,-1.15575,-0.07884469204077879
1029,-1.155375,-0.08001741115630115
1030,-1.155,-0.08001741115630115
1031,-1.154625,-0.07901222334299626
1032,-1.15425,-0.07683431641416903
1033,-1.153875,-0.07365122167203693
1034,-1.1535,-0.06946293911659993
1035,-1.153125,-0.06460453135229051
1036,-1.15275,-0.05907599837911352
1037,-1.152375,-0.05321240280150708
1038,-1.152,-0.04667868201502566
1039,-1.151625,-0.03980989862410603
1040,-1.15125,-0.032606052628754406
1041,-1.150875,-0.0252346753311853
1042,-1.1505,-0.01786329803361619
1043,-1.150125,-0.010491920736047084
1044,-1.14975,-0.0036231373451304227
1045,-1.149375,0.002910583441351283
1046,-1.149,0.008774179018963074
1047,-1.148625,0.013632586783269984
1048,-1.14825,0.017485806734272018
1049,-1.147875,0.02033383887196917
1050,-1.1475,0.02200915189414397
1051,-1.147125,0.022679277103013658
1052,-1.14675,0.02217668319636084
1053,-1.146375,0.020836432778622224
1054,-1.146,0.018490994547577962
1055,-1.145625,0.015307899805444782
1056,-1.14525,0.011454679854442748
1057,-1.144875,0.006931334694570801
1058,-1.1445,0.0019053956280464105
1059,-1.144125,-0.0037906686473479015
1060,-1.14375,-0.009989326829394643
1061,-1.143375,-0.016523047615876345
1062,-1.143,-0.022889237100140583
1063,-1.142625,-0.029255426584404817
1064,-1.14225,-0.035119022162016594
1065,-1.141875,-0.04081508643741091
1066,-1.1415,-0.046176088108370254
1067,-1.141125,-0.05136955847711426
1068,-1.14075,-0.05606043493920354
1069,-1.140375,-0.06041624879685404
1070,-1.14,-0.06410193744564058
1071,-1.139625,-0.06694996958333774
1072,-1.13925,-0.06912787651216498
1073,-1.138875,-0.07030059562768734
1074,-1.1385,-0.07046812692990481
1075,-1.138125,-0.0697980017210349
1076,-1.13775,-0.06829022000107757
1077,-1.137375,-0.06611231307225034
1078,-1.137,-0.06343181223677066
1079,-1.136625,-0.06075131140129099
1080,-1.13625,-0.05756821665915887
1081,-1.135875,-0.05421759061480928
1082,-1.1355,-0.05036437066380528
1083,-1.135125,-0.0460085568061508
1084,-1.13475,-0.041652742948500285
1085,-1.134375,-0.03712939778862841
1086,-1.134,-0.032606052628754406
1087,-1.133625,-0.027915176166664973
1088,-1.13325,-0.023391831006793026
1089,-1.132875,-0.019036017149138554
1090,-1.1325,-0.015015265895919035
1091,-1.132125,-0.011162045944917
1092,-1.13175,-0.007811419900567412
1093,-1.131375,-0.004795856460652781
1094,-1.131,-0.0024504182296080645
1095,-1.130625,-0.0009426365096507489
1096,-1.13025,-0.00010497999856334818
1097,-1.129875,-0.00010497999856334818
1098,-1.1295,-0.001110167811869066
1099,-1.129125,-0.00295301213626172
1100,-1.12875,-0.005633512971738962
1101,-1.128375,-0.00898413901608825
1102,-1.128,-0.013339952873744244
1103,-1.127625,-0.018365891940268636
1104,-1.12725,-0.023894424913445456
1105,-1.126875,-0.029758020491057243
1106,-1.1265,-0.035956678673103995
1107,-1.126125,-0.04198780555293327
1108,-1.12575,-0.047851401130545035
1109,-1.125375,-0.05337993410372188
1110,-1.125,-0.058573404472463765
1111,-1.124625,-0.06343181223677066
1112,-1.12425,-0.06778762609442512
1113,-1.123875,-0.07164084604542717
1114,-1.1235,-0.07465640948534294
1115,-1.1231250000000002,-0.07716937901860285
1116,-1.12275,-0.07867716073856064
1117,-1.122375,-0.07917975464521376
1118,-1.122,-0.07884469204077879
1119,-1.121625,-0.07750444162303896
1120,-1.12125,-0.07532653469421173
1121,-1.120875,-0.07197590864986213
1122,-1.1205,-0.0681226886988601
1123,-1.120125,-0.06343181223677066
1124,-1.11975,-0.05840587317024627
1125,-1.119375,-0.05287734019706944
1126,-1.119,-0.04718127592167513
1127,-1.118625,-0.04148521164628083
1128,-1.11825,-0.03578914737088652
1129,-1.117875,-0.029758020491054582
1130,-1.1175,-0.023894424913442788
1131,-1.117125,-0.018030829335836343
1132,-1.11675,-0.012502296362659359
1133,-1.116375,-0.007141294691697498
1134,-1.116,-0.0021153556251731075
1135,-1.115625,0.002407989534698847
1136,-1.11525,0.006596272090135836
1137,-1.114875,0.010114429436702913
1138,-1.1145,0.013129992876617548
1139,-1.114125,0.015642962409879745
1140,-1.11375,0.01731827543205454
1141,-1.113375,0.017820869338706975
1142,-1.113,0.017653338036489497
1143,-1.112625,0.01631308761874966
1144,-1.11225,0.0143027119921399
1145,-1.111875,0.011622211156658627
1146,-1.1115,0.00810405381009133
1147,-1.111125,0.00408330255687547
1148,-1.11075,-0.00044004260299624823
1149,-1.110375,-0.005465981669522696
1150,-1.11,-0.010994514642699528
1151,-1.109625,-0.017025641522528792
1152,-1.10925,-0.02322429970457554
1153,-1.108875,-0.029925551793274725
1154,-1.1085,-0.03645927257975643
1155,-1.108125,-0.042992993366238144
1156,-1.10775,-0.04935918285050237
1157,-1.107375,-0.055390309730331634
1158,-1.107,-0.060918842703508475
1159,-1.106625,-0.06577725046781538
1160,-1.10625,-0.07013306432546984
1161,-1.105875,-0.07381875297425579
1162,-1.1055,-0.07683431641416767
1163,-1.105125,-0.07867716073856047
1164,-1.10475,-0.0796823485518662
1165,-1.104375,-0.0795148172496487
1166,-1.104,-0.07834209813412635
1167,-1.103625,-0.07599665990308163
1168,-1.10325,-0.07247850255651456
1169,-1.102875,-0.06778762609442512
1170,-1.1025,-0.06242662442346579
1171,-1.102125,-0.05606043493920156
1172,-1.10175,-0.049191651548284886
1173,-1.101375,-0.04182027425071578
1174,-1.101,-0.03411383434871172
1175,-1.100625,-0.0260723318422727
1176,-1.10025,-0.017863298033612383
1177,-1.099875,-0.009486732922738479
1178,-1.0995,-0.0012776991140894395
1179,-1.099125,0.006763803392349658
1180,-1.09875,0.014135180689922422
1181,-1.098375,0.020836432778621614
1182,-1.098,0.02636496575179844
1183,-1.097625,0.030720779609452912
1184,-1.09725,0.03373634304936755
1185,-1.096875,0.03557918737375983
1186,-1.0965,0.036081781280412256
1187,-1.096125,0.035411656071542334
1188,-1.09575,0.03356881174715007
1189,-1.095375,0.030553248307235437
1190,-1.095,0.02653249705401592
1191,-1.094625,0.02167408928970901
1192,-1.09425,0.016145556316529364
1193,-1.093875,0.009946898134482384
1194,-1.0935,0.0032456460457892947
1195,-1.093125,-0.003958199949562104
1196,-1.09275,-0.011497108549351959
1197,-1.092375,-0.018868485846921062
1198,-1.092,-0.0260723318422727
1199,-1.091625,-0.032941115233189364
1200,-1.09125,-0.038972242113018626
1201,-1.090875,-0.044165712481760495
1202,-1.0905,-0.04868905764163245
1203,-1.090125,-0.05237474629041701
1204,-1.08975,-0.05522277842811416
1205,-1.089375,-0.05723315405472393
1206,-1.089,-0.0582383418680288
1207,-1.088625,-0.058573404472463765
1208,-1.08825,-0.05823834186802819
1209,-1.087875,-0.05689809145028956
1210,-1.0875,-0.055055247125897516
1211,-1.087125,-0.05237474629041701
1212,-1.08675,-0.049191651548284886
1213,-1.086375,-0.045505962899500325
1214,-1.086,-0.04165274294849831
1215,-1.085625,-0.03729692909084384
1216,-1.08525,-0.03277358393097188
1217,-1.084875,-0.027915176166664973
1218,-1.0845,-0.022889237100140583
1219,-1.084125,-0.018030829335833682
1220,-1.08375,-0.01350748417596172
1221,-1.083375,-0.009486732922742214
1222,-1.083,-0.005801044273957654
1223,-1.082625,-0.0027854808340419556
1224,-1.08225,-0.0004400426029974676
1225,-1.081875,0.0014028017213931294
1226,-1.0815,0.0025755208369157927
1227,-1.081125,0.0030781147435687693
1228,-1.08075,0.002743052139133805
1229,-1.080375,0.0015703330236114465
1230,-1.08,-0.0002725113007808269
1231,-1.079625,-0.002785480834043022
1232,-1.07925,-0.006136106878392611
1233,-1.078875,-0.009821795527177171
1234,-1.0785,-0.014177609384831646
1235,-1.078125,-0.018868485846921062
1236,-1.07775,-0.023894424913445456
1237,-1.077375,-0.029087895282187325
1238,-1.077,-0.034616428255364165
1239,-1.076625,-0.04031249253076106
1240,-1.07625,-0.04600855680615544
1241,-1.075875,-0.0518721523837619
1242,-1.0755,-0.0574006853569414
1243,-1.075125,-0.06259415572568326
1244,-1.07475,-0.06728503218777271
1245,-1.074375,-0.0713057834409922
1246,-1.074,-0.07482394078755927
1247,-1.073625,-0.07750444162303896
1248,-1.07325,-0.0795148172496487
1249,-1.072875,-0.08102259896960604
1250,-1.0725,-0.0820277867829109
1251,-1.072125,-0.0821953180851284
1252,-1.07175,-0.08169272417847595
1253,-1.071375,-0.08018494245851862
1254,-1.071,-0.07800703552969013
1255,-1.070625,-0.07515900339199243
1256,-1.07025,-0.07113825213877656
1257,-1.069875,-0.06644737567668743
1258,-1.0695,-0.060918842703508475
1259,-1.069125,-0.05455265321924424
1260,-1.06875,-0.04734880722389263
1261,-1.068375,-0.03964236732188855
1262,-1.068,-0.031768396117667005
1263,-1.067625,-0.023894424913445456
1264,-1.06725,-0.01618798501144139
1265,-1.066875,-0.008816607713872285
1266,-1.0665,-0.0021153556251731075
1267,-1.066125,0.0037482399524386826
1268,-1.06575,0.008941710321180553
1269,-1.065375,0.013297524178835028
1270,-1.065,0.0169832128276208
1271,-1.064625,0.019663713663100095
1272,-1.06425,0.02150655798749069
1273,-1.063875,0.02251174580079595
1274,-1.0635,0.022511745800796408
1275,-1.063125,0.02167408928970901
1276,-1.06275,0.01983124496531673
1277,-1.062375,0.01715074412983706
1278,-1.062,0.013632586783269984
1279,-1.061625,0.009276772925615509
1280,-1.06125,0.003915771254656163
1281,-1.060875,-0.0019478243229556211
1282,-1.0605,-0.008649076411654813
1283,-1.060125,-0.015852922407006434
1284,-1.05975,-0.02305676840235807
1285,-1.059375,-0.03042814569992716
1286,-1.059,-0.03763199169528207
1287,-1.058625,-0.044835837690633616
1288,-1.05825,-0.05187215238376137
1289,-1.057875,-0.058573404472463765
1290,-1.0575,-0.0647720626545105
1291,-1.057125,-0.07063565823212227
1292,-1.05675,-0.07566159729864669
1293,-1.056375,-0.07984987985408368
1294,-1.056,-0.08303297459621578
1295,-1.055625,-0.0853784128272605
1296,-1.05525,-0.08621606933834791
1297,-1.054875,-0.08571347543169547
1298,-1.0545,-0.08403816240952067
1299,-1.054125,-0.08135766157404098
1300,-1.05375,-0.07767197292525643
1301,-1.053375,-0.0734836903698173
1302,-1.053,-0.06879281390772758
1303,-1.052625,-0.0634318122367731
1304,-1.05225,-0.05773574796137894
1305,-1.051875,-0.05203968368598205
1306,-1.0515,-0.045673494201717825
1307,-1.051125,-0.038972242113018626
1308,-1.05075,-0.03227099002431945
1309,-1.050375,-0.025402206633402785
1310,-1.05,-0.018868485846921062
1311,-1.049625,-0.01233476506043936
1312,-1.04925,-0.005968575576175139
1313,-1.048875,-0.0006075739052157844
1314,-1.0485,0.004250833859091127
1315,-1.048125,0.00810405381009316
1316,-1.04775,0.01111961725000779
1317,-1.047375,0.013129992876618082
1318,-1.047,0.014302711992140053
1319,-1.046625,0.014637774596574712
1320,-1.04625,0.014135180689922653
1321,-1.045875,0.012794930272182585
1322,-1.0455,0.010784554645572831
1323,-1.045125,0.007936522507875673
1324,-1.04475,0.004418365161308606
1325,-1.044375,0.00023008260587160934
1326,-1.044,-0.004795856460652781
1327,-1.043625,-0.010324389433829614
1328,-1.04325,-0.016355516313658877
1329,-1.042875,-0.0227217057979231
1330,-1.0425,-0.029255426584404817
1331,-1.042125,-0.03578914737088652
1332,-1.04175,-0.042155336855150737
1333,-1.041375,-0.04801893243276504
1334,-1.041,-0.05354746540594165
1335,-1.040625,-0.058573404472461475
1336,-1.04025,-0.06292921833011822
1337,-1.039875,-0.06627984437446782
1338,-1.0395,-0.06862528260551254
1339,-1.039125,-0.07013306432546984
1340,-1.03875,-0.07063565823212227
1341,-1.038375,-0.06996553302325237
1342,-1.038,-0.06862528260551254
1343,-1.037625,-0.0664473756766853
1344,-1.03725,-0.06343181223677066
1345,-1.036875,-0.059578592285768624
1346,-1.0365,-0.05472018452146172
1347,-1.036125,-0.04935918285050237
1348,-1.03575,-0.04316052466845266
1349,-1.035375,-0.036626803881970635
1350,-1.035,-0.029422957886625564
1351,-1.034625,-0.021884049286839142
1352,-1.03425,-0.014345140687049118
1353,-1.033875,-0.006973763389480012
1354,-1.0335,0.00023008260587160934
1355,-1.033125,0.006763803392353315
1356,-1.03275,0.012627398969965105
1357,-1.032375,0.01815593194314194
1358,-1.032,0.02318187100966633
1359,-1.031625,0.02720262226288584
1360,-1.03125,0.03038571700501795
1361,-1.030875,0.03239609263162771
1362,-1.0305,0.03356881174715007
1363,-1.030125,0.03356881174715007
1364,-1.02975,0.032396092631626794
1365,-1.029375,0.03038571700501658
1366,-1.029,0.02737015356510469
1367,-1.028625,0.023684464916320442
1368,-1.02825,0.01916111975644681
1369,-1.027875,0.013967649387704943
1370,-1.0275,0.008271585112310638
1371,-1.027125,0.002240458232481368
1372,-1.02675,-0.004293262554000338
1373,-1.026375,-0.011162045944917
1374,-1.026,-0.018198360638051154
1375,-1.025625,-0.025569737935620257
1376,-1.02525,-0.032941115233189364
1377,-1.024875,-0.040144961228540985
1378,-1.0245,-0.046846213317240176
1379,-1.024125,-0.05354746540593937
1380,-1.02375,-0.05974612358798863
1381,-1.023375,-0.06527465656116042
1382,-1.023,-0.06996553302325023
1383,-1.022625,-0.07365122167203693
1384,-1.02225,-0.07616419120529913
1385,-1.021875,-0.07733691032082149
1386,-1.0215,-0.07733691032082149
1387,-1.021125,-0.07616419120529913
1388,-1.02075,-0.07381875297425443
1389,-1.020375,-0.07013306432546984
1390,-1.02,-0.0656097191655979
1391,-1.019625,-0.05991365489020359
1392,-1.01925,-0.05354746540593937
1393,-1.018875,-0.04651115071280522
1394,-1.0185,-0.03880471081080116
1395,-1.018125,-0.030763208304358476
1396,-1.01775,-0.022721705797919288
1397,-1.017375,-0.014345140687052924
1398,-1.017,-0.006303638180613754
1399,-1.016625,0.0014028017213939675
1400,-1.01625,0.008606647716745595
1401,-1.015875,0.015307899805444782
1402,-1.0155,0.021171495383056568
1403,-1.015125,0.026029903147363486
1404,-1.01475,0.029883123098365518
1405,-1.014375,0.03239609263162771
1406,-1.014,0.03356881174715007
1407,-1.013625,0.03340128044493258
1408,-1.01325,0.03206103002719276
1409,-1.012875,0.029380529191713075
1410,-1.0125,0.025694840542928518
1411,-1.012125,0.0210039640808365
1412,-1.01175,0.015307899805441885
1413,-1.011375,0.008941710321183448
1414,-1.011,0.001737864325832208
1415,-1.010625,-0.005801044273957654
1416,-1.01025,-0.01350748417596172
1417,-1.009875,-0.021381455380183267
1418,-1.0095,-0.029255426584404817
1419,-1.009125,-0.03662680388197391
1420,-1.00875,-0.04366311857510806
1421,-1.008375,-0.05036437066380725
1422,-1.008,-0.05639549754363653
1423,-1.007625,-0.06158896791237839
1424,-1.00725,-0.06627984437446782
1425,-1.006875,-0.07013306432546984
1426,-1.0065,-0.07314862776538447
1427,-1.006125,-0.07532653469421217
1428,-1.00575,-0.07633172250751613
1429,-1.005375,-0.0763317225075166
1430,-1.005,-0.07549406599642919
1431,-1.004625,-0.07348369036981944
1432,-1.00425,-0.07030059562768734
1433,-1.003875,-0.0664473756766853
1434,-1.0035,-0.06158896791237839
1435,-1.003125,-0.0557253723347666
1436,-1.00275,-0.0490241202460674
1437,-1.002375,-0.04165274294849831
1438,-1.002,-0.033946303046494236
1439,-1.001625,-0.025569737935620257
1440,-1.0012500000000002,-0.01702564152253268
1441,-1.0008750000000002,-0.008649076411658622
1442,-1.0005000000000002,-0.0004400426030020387
1443,-1.0001250000000002,0.007601459903437059
1444,-0.99975,0.014972837201009823
1445,-0.999375,0.02167408928970901
1446,-0.9990000000000001,0.027872747471755756
1447,-0.998625,0.03323374914271511
1448,-0.99825,0.03775709430258706
1449,-0.997875,0.041442782951371604
1450,-0.9975,0.044458346391286256
1451,-0.997125,0.04663625332011348
1452,-0.99675,0.04797650373785332
1453,-0.996375,0.04831156634228828
1454,-0.996,0.04780897243563584
1455,-0.995625,0.045966128111243565
1456,-0.99525,0.04345315857798136
1457,-0.994875,0.04027006383584925
1458,-0.9945,0.03641684388484722
1459,-0.994125,0.032228561329410224
1460,-0.99375,0.02770521616953828
1461,-0.993375,0.022846808405231362
1462,-0.9930000000000002,0.017820869338706975
1463,-0.992625,0.012794930272182585
1464,-0.99225,0.007768991205658194
1465,-0.991875,0.002743052139133805
1466,-0.9915,-0.002282886927390586
1467,-0.991125,-0.007141294691697498
1468,-0.99075,-0.01183217115378693
1469,-0.990375,-0.01602045370922392
1470,-0.9900000000000002,-0.01987367366022595
1471,-0.9896250000000002,-0.02322429970457554
1472,-0.98925,-0.02590480054005521
1473,-0.988875,-0.02808270746888246
1474,-0.9885,-0.02942295788662229
1475,-0.988125,-0.029925551793274725
1476,-0.98775,-0.029590489188839775
1477,-0.987375,-0.028250238771099924
1478,-0.9870000000000002,-0.02623986314449017
1479,-0.9866250000000002,-0.02322429970457554
1480,-0.98625,-0.019538611055790998
1481,-0.985875,-0.014847734593701563
1482,-0.9855,-0.009654264224959684
1483,-0.985125,-0.0037906686473479015
1484,-0.98475,0.002407989534698847
1485,-0.984375,0.008774179018963074
1486,-0.9840000000000002,0.015140368503227303
1487,-0.983625,0.02150655798749153
1488,-0.98325,0.0275376848673208
1489,-0.982875,0.03323374914271511
1490,-0.9825,0.03859475081367446
1491,-0.982125,0.043118095973546405
1492,-0.98175,0.0473063785289834
1493,-0.981375,0.05048947327111551
1494,-0.981,0.052332317595507785
1495,-0.980625,0.05367256801324763
1496,-0.98025,0.05367256801324763
1497,-0.979875,0.0530024428043777
1498,-0.9795,0.05115959847998544
1499,-0.979125,0.04847909764450575
1500,-0.97875,0.044960940297938685
1501,-0.9783750000000002,0.040772657742501696
1502,-0.978,0.035914249978194784
1503,-0.977625,0.030553248307235437
1504,-0.97725,0.024689652729623642
1505,-0.976875,0.01815593194314194
1506,-0.9765,0.011622211156660227
1507,-0.976125,0.004585896463526085
1508,-0.97575,-0.0024504182296080645
1509,-0.9753750000000002,-0.009319201620524728
1510,-0.975,-0.01602045370922392
1511,-0.974625,-0.02238664319348814
1512,-0.97425,-0.02858530137553489
1513,-0.973875,-0.03411383434871172
1514,-0.9735,-0.03930730471745359
1515,-0.973125,-0.04399818117954302
1516,-0.97275,-0.04818646373498002
1517,-0.9723750000000002,-0.05170462108154708
1518,-0.9720000000000002,-0.05438512191702676
1519,-0.971625,-0.05606043493920156
1520,-0.97125,-0.05673056014807148
1521,-0.970875,-0.05606043493920156
1522,-0.9705,-0.0540500593125918
1523,-0.970125,-0.050531901966024716
1524,-0.96975,-0.04600855680615278
1525,-0.9693750000000002,-0.040480023832975935
1526,-0.969,-0.03428136565092921
1527,-0.968625,-0.027747644864447488
1528,-0.96825,-0.020711330171313356
1529,-0.967875,-0.013842546780396675
1530,-0.9675,-0.007308825993914969
1531,-0.967125,-0.0011101678118682276
1532,-0.96675,0.004585896463526085
1533,-0.966375,0.009611835530050475
1534,-0.966,0.013800118085487464
1535,-0.965625,0.01715074412983706
1536,-0.96525,0.019663713663099255
1537,-0.964875,0.02150655798749153
1538,-0.9645,0.022679277103013887
1539,-0.964125,0.023516933614101287
1540,-0.96375,0.02334940231188381
1541,-0.963375,0.02234421449857893
1542,-0.963,0.02033383887196917
1543,-0.962625,0.017653338036489497
1544,-0.96225,0.013967649387704943
1545,-0.961875,0.009444304227832996
1546,-0.9615,0.004753427765743563
1547,-0.961125,-0.0006075739052157844
1548,-0.9607500000000002,-0.005968575576175139
1549,-0.960375,-0.011664639851569444
1550,-0.96,-0.01719317282474628
1551,-0.959625,-0.0227217057979231
1552,-0.95925,-0.028250238771099924
1553,-0.958875,-0.03361124044205928
1554,-0.9585,-0.03863717950858366
1555,-0.958125,-0.043830649877325545
1556,-0.9577500000000002,-0.04852152633941498
1557,-0.957375,-0.05287734019706944
1558,-0.957,-0.05723315405472393
1559,-0.956625,-0.060918842703508475
1560,-0.95625,-0.06376687484120562
1561,-0.955875,-0.06611231307225034
1562,-0.9555,-0.06795515739664262
1563,-0.955125,-0.06896034520994747
1564,-0.9547500000000002,-0.06912787651216498
1565,-0.954375,-0.06862528260551254
1566,-0.954,-0.06711750088555522
1567,-0.953625,-0.06443700005007554
1568,-0.95325,-0.06075131140129099
1569,-0.952875,-0.056227966241419035
1570,-0.9525,-0.050699433268242215
1571,-0.952125,-0.044668306388412946
1572,-0.95175,-0.03863717950858366
1573,-0.951375,-0.03243852132653692
1574,-0.951,-0.02657492574892513
1575,-0.950625,-0.02104639277574831
1576,-0.95025,-0.01602045370922392
1577,-0.949875,-0.011162045944917
1578,-0.9495,-0.006638700785045054
1579,-0.949125,-0.0024504182296080645
1580,-0.94875,0.0015703330236114465
1581,-0.948375,0.004920959067961042
1582,-0.948,0.007433928601223237
1583,-0.947625,0.009276772925615509
1584,-0.94725,0.01028196073892039
1585,-0.946875,0.010449492041137869
1586,-0.9465,0.009611835530050475
1587,-0.9461250000000002,0.00810405381009316
1588,-0.94575,0.005423552974613478
1589,-0.945375,0.0019053956280464105
1590,-0.945,-0.002282886927390586
1591,-0.944625,-0.007308825993914969
1592,-0.94425,-0.012669827664874319
1593,-0.943875,-0.018533423242486108
1594,-0.9435,-0.024732081424532856
1595,-0.9431250000000002,-0.030930739606579605
1596,-0.94275,-0.03712939778862635
1597,-0.942375,-0.04332805597067311
1598,-0.942,-0.049191651548284886
1599,-0.941625,-0.0548877158236792
1600,-0.94125,-0.060416248796856024
1601,-0.940875,-0.0656097191655979
1602,-0.9405,-0.07080318953433977
1603,-0.9401250000000002,-0.07549406599642919
1604,-0.9397500000000002,-0.07984987985408368
1605,-0.939375,-0.08353556850286822
1606,-0.939,-0.08671866324500033
1607,-0.938625,-0.08889657017382757
1608,-0.93825,-0.0902368205915674
1609,-0.937875,-0.09073941449821983
1610,-0.9375,-0.0904043518937849
1611,-0.9371250000000002,-0.08906410147604504
1612,-0.93675,-0.0870537258494353
1613,-0.936375,-0.08403816240952067
1614,-0.936,-0.08035247376073612
1615,-0.935625,-0.07616419120529913
1616,-0.93525,-0.0713057834409922
1617,-0.934875,-0.06577725046781538
1618,-0.9345,-0.06024871749463854
1619,-0.934125,-0.05438512191702676
1620,-0.93375,-0.048353995037197485
1621,-0.933375,-0.04265793076180318
1622,-0.933,-0.03712939778862635
1623,-0.932625,-0.031935927419884484
1624,-0.93225,-0.027077519655577573
1625,-0.931875,-0.022889237100140583
1626,-0.9315000000000002,-0.01937107975357351
1627,-0.931125,-0.016523047615876345
1628,-0.93075,-0.014847734593701563
1629,-0.930375,-0.014010078082614159
1630,-0.93,-0.014177609384831646
1631,-0.929625,-0.015350328500354003
1632,-0.92925,-0.017360704126963746
1633,-0.928875,-0.02020873626466091
1634,-0.9285000000000002,-0.023726893611227984
1635,-0.928125,-0.027915176166664973
1636,-0.92775,-0.03277358393097188
1637,-0.927375,-0.03813458560193124
1638,-0.927,-0.043830649877325545
1639,-0.926625,-0.0500293080593723
1640,-0.92625,-0.056563028845854
1641,-0.925875,-0.06292921833011822
1642,-0.9255000000000002,-0.06912787651216498
1643,-0.925125,-0.07515900339199423
1644,-0.92475,-0.08035247376073612
1645,-0.924375,-0.0853784128272605
1646,-0.924,-0.08973422668491497
1647,-0.923625,-0.093587446635917
1648,-0.92325,-0.0967705413780491
1649,-0.922875,-0.09911597960909382
1650,-0.9225000000000002,-0.20158258526253725
1651,-0.922125,-0.20325789828471208
1652,-0.92175,-0.2022527104714072
1653,-0.921375,-0.09978610481796374
1654,-0.921,-0.09710560398248408
1655,-0.920625,-0.093587446635917
1656,-0.92025,-0.08889657017382757
1657,-0.919875,-0.08336803720065075
1658,-0.9195,-0.07683431641416903
1659,-0.919125,-0.0697980017210349
1660,-0.91875,-0.06209156181903084
1661,-0.918375,-0.05421759061480928
1662,-0.918,-0.046176088108370254
1663,-0.917625,-0.03830211690414871
1664,-0.91725,-0.03059567700214465
1665,-0.916875,-0.02305676840235807
1666,-0.9165,-0.01618798501144139
1667,-0.916125,-0.009821795527177171
1668,-0.91575,-0.003958199949565379
1669,-0.915375,0.0012352704191764888
1670,-0.915,0.005758615579048443
1671,-0.914625,0.009611835530050475
1672,-0.91425,0.012794930272182585
1673,-0.9138750000000002,0.015307899805444782
1674,-0.9135,0.016815681525402096
1675,-0.913125,0.017653338036489497
1676,-0.91275,0.017485806734272018
1677,-0.912375,0.01631308761874966
1678,-0.912,0.0143027119921399
1679,-0.911625,0.011454679854442748
1680,-0.91125,0.007936522507875673
1681,-0.9108750000000002,0.004250833859091127
1682,-0.9105,6.255130365413057e-05
1683,-0.910125,-0.004293262554000338
1684,-0.90975,-0.008816607713872285
1685,-0.909375,-0.01317242157152676
1686,-0.909,-0.017360704126963746
1687,-0.908625,-0.02104639277574831
1688,-0.90825,-0.0243970188200979
1689,-0.9078750000000002,-0.02724505095779506
1690,-0.9075,-0.029758020491057243
1691,-0.907125,-0.031935927419884484
1692,-0.90675,-0.03411383434871172
1693,-0.906375,-0.03578914737088652
1694,-0.906,-0.03746446039306131
1695,-0.905625,-0.038972242113018626
1696,-0.90525,-0.04031249253075848
1697,-0.904875,-0.04182027425071578
1698,-0.9045,-0.042992993366238144
1699,-0.904125,-0.04366311857510806
1700,-0.90375,-0.04349558727289058
1701,-0.903375,-0.042490399459585694
1702,-0.903,-0.04064755513519343
1703,-0.902625,-0.03813458560193124
1704,-0.90225,-0.03495149085979912
1705,-0.901875,-0.03126580221101456
1706,-0.9015,-0.027077519655577573
1707,-0.901125,-0.022554174495705626
1708,-0.90075,-0.01786329803361619
1709,-0.900375,-0.013339952873744244
1710,-0.9,-0.008816607713872285
1711,-0.899625,-0.0044607938562178165
1712,-0.89925,-0.0002725113007808269
1713,-0.898875,0.0035807086502212047
1714,-0.8985,0.006931334694570801
1715,-0.898125,0.009444304227832996
1716,-0.89775,0.01111961725000779
1717,-0.897375,0.011789742458877704
1718,-0.897,0.01128714855222527
1719,-0.896625,0.009779366832267955
1720,-0.89625,0.007266397299005758
1721,-0.895875,0.0037482399524386826
1722,-0.8955,-0.0006075739052157844
1723,-0.895125,-0.005801044273957654
1724,-0.89475,-0.011664639851569444
1725,-0.894375,-0.018030829335833682
1726,-0.894,-0.024732081424532856
1727,-0.893625,-0.03143333351323205
1728,-0.89325,-0.03813458560193124
1729,-0.8928749999999998,-0.04483583769063042
1730,-0.8925,-0.051369558477112116
1731,-0.892125,-0.0574006853569414
1732,-0.89175,-0.0630967496323357
1733,-0.891375,-0.06795515739664262
1734,-0.891,-0.07247850255651456
1735,-0.890625,-0.0763317225075166
1736,-0.89025,-0.07934728594743123
1737,-0.889875,-0.08169272417847595
1738,-0.8895,-0.08320050589843325
1739,-0.889125,-0.08403816240952067
1740,-0.88875,-0.08420569371173814
1741,-0.888375,-0.0838706311073032
1742,-0.888,-0.08269791199178084
1743,-0.887625,-0.08102259896960604
1744,-0.88725,-0.07834209813412635
1745,-0.886875,-0.07482394078755927
1746,-0.8865,-0.07046812692990481
1747,-0.886125,-0.06510712525894546
1748,-0.88575,-0.059075998379116174
1749,-0.885375,-0.05270980889485196
1750,-0.885,-0.0458410255039353
1751,-0.884625,-0.038972242113018626
1752,-0.88425,-0.03210345872210196
1753,-0.883875,-0.025402206633402785
1754,-0.8835,-0.018868485846921062
1755,-0.883125,-0.012669827664874319
1756,-0.88275,-0.006973763389480012
1757,-0.882375,-0.0019478243229556211
1758,-0.882,0.002407989534698847
1759,-0.881625,0.0060936781834834
1760,-0.88125,0.008606647716745595
1761,-0.880875,0.01028196073892039
1762,-0.8805,0.010952085947790312
1763,-0.880125,0.010449492041137869
1764,-0.87975,0.008606647716745595
1765,-0.879375,0.005591084276830964
1766,-0.879,0.001737864325828932
1767,-0.878625,-0.002785480834043022
1768,-0.87825,-0.007978951202784898
1769,-0.877875,-0.01350748417596172
1770,-0.8775,-0.01937107975357351
1771,-0.877125,-0.025569737935620257
1772,-0.87675,-0.03243852132653692
1773,-0.876375,-0.03964236732188855
1774,-0.8759999999999999,-0.04718127592167513
1775,-0.875625,-0.0548877158236792
1776,-0.8752499999999998,-0.06259415572568326
1777,-0.874875,-0.06996553302325237
1778,-0.8745,-0.07683431641416903
1779,-0.874125,-0.08303297459621578
1780,-0.87375,-0.08839397626717513
1781,-0.873375,-0.09291732142704708
1782,-0.873,-0.09626794747139668
1783,-0.872625,-0.09844585440022392
1784,-0.87225,-0.09961857351574627
1785,-0.871875,-0.09961857351574627
1786,-0.8715,-0.0986133857024414
1787,-0.871125,-0.09643547877361418
1788,-0.87075,-0.09291732142704708
1789,-0.870375,-0.08822644496495766
1790,-0.87,-0.08253038068956334
1791,-0.869625,-0.07616419120529913
1792,-0.86925,-0.06879281390773001
1793,-0.868875,-0.060918842703508475
1794,-0.8685,-0.05254227759263448
1795,-0.868125,-0.04366311857510806
1796,-0.86775,-0.03495149085979912
1797,-0.867375,-0.02623986314449017
1798,-0.867,-0.018030829335833682
1799,-0.866625,-0.010156858131612129
1800,-0.86625,-0.0029530121362605012
1801,-0.865875,0.0037482399524386826
1802,-0.8655,0.009779366832267955
1803,-0.865125,0.014972837201009823
1804,-0.86475,0.019328651058664287
1805,-0.864375,0.023014339707448844
1806,-0.864,0.025694840542928518
1807,-0.863625,0.0275376848673208
1808,-0.86325,0.028710403982843156
1809,-0.862875,0.029212997889495593
1810,-0.8625,0.02887793528506064
1811,-0.862125,0.02804027877397324
1812,-0.86175,0.02653249705401592
1813,-0.861375,0.02435459012518868
1814,-0.861,0.022176683196361447
1815,-0.8606249999999998,0.019328651058664287
1816,-0.86025,0.016480618920967142
1817,-0.859875,0.013632586783269984
1818,-0.8595,0.010617023343355354
1819,-0.859125,0.007936522507875673
1820,-0.85875,0.005423552974613478
1821,-0.858375,0.0034131773480037264
1822,-0.858,0.001737864325828932
1823,-0.8576249999999997,0.00106773911695901
1824,-0.85725,0.0009002078147415313
1825,-0.856875,0.0014028017213939675
1826,-0.8565,0.0030781147435687693
1827,-0.856125,0.005423552974613478
1828,-0.85575,0.008774179018963074
1829,-0.855375,0.013297524178835028
1830,-0.855,0.018658525849794376
1831,-0.854625,0.025192246636276082
1832,-0.85425,0.03256362393384519
1833,-0.853875,0.041275251649154125
1834,-0.8535,0.05082453587555047
1835,-0.853125,0.0613790079152517
1836,-0.85275,0.0727711364660403
1837,-0.852375,0.08483339022569884
1838,-0.852,0.0977333004964448
1839,-0.851625,0.22126642153438145
1840,-0.85125,0.24807142988917816
1841,-0.850875,0.27454137563953995
1842,-0.8505,0.3013463839943367
1843,-0.850125,0.32748126714026354
1844,-0.84975,0.3532810876817554
1845,-0.849375,0.3780757204099424
1846,-0.849,0.4008599775115197
1847,-0.848625,0.4219689215909221
1848,-0.84825,0.4407324274392799
1849,-0.847875,0.4568154324521578
1850,-0.8475,0.4705529992339912
1851,-0.847125,0.4812750025759098
1852,-0.84675,0.4893165050823489
1853,-0.846375,0.4946775067533082
1854,-0.8459999999999998,0.497358007588788
1855,-0.845625,0.497358007588788
1856,-0.84525,0.4940073815444384
1857,-0.844875,0.4876411920601741
1858,-0.8445,0.4785945017404302
1859,-0.844125,0.4668673105852066
1860,-0.84375,0.4524596185945034
1861,-0.843375,0.4363766135816253
1862,-0.8429999999999997,0.4169429825243977
1863,-0.842625,0.3965041636538652
1864,-0.84225,0.37439003176115787
1865,-0.841875,0.35160577465958065
1866,-0.8415,0.32848645495356843
1867,-0.841125,0.3050320726431213
1868,-0.84075,0.28191275293710905
1869,-0.840375,0.2591284958355318
1870,-0.8399999999999997,0.2370143639428245
1871,-0.839625,0.21624048246785704
1872,-0.83925,0.0984034257053147
1873,-0.838875,0.08952426668778828
1874,-0.8385,0.08148276418134927
1875,-0.838125,0.0744464494882151
1876,-0.83775,0.06858285391060333
1877,-0.837375,0.06389197744851388
1878,-0.837,0.060206288799729335
1879,-0.836625,0.05752578796424966
1880,-0.83625,0.05568294363985738
1881,-0.835875,0.0546777558265525
1882,-0.8355,0.05400763061768258
1883,-0.835125,0.05400763061768258
1884,-0.83475,0.053840099315465115
1885,-0.834375,0.053840099315465115
1886,-0.834,0.053505036711030136
1887,-0.833625,0.05316997410659518
1888,-0.83325,0.052332317595507785
1889,-0.832875,0.05132712978220292
1890,-0.8325,0.04948428545781063
1891,-0.832125,0.047138847226765916
1892,-0.83175,0.043955752484633806
1893,-0.831375,0.03943240732476186
1894,-0.831,0.034071405653802504
1895,-0.830625,0.0275376848673208
1896,-0.83025,0.020166307569751688
1897,-0.829875,0.011957273761095193
1898,-0.8295,0.002910583441351283
1899,-0.829125,-0.00680623208726254
1900,-0.82875,-0.01719317282474628
1901,-0.8283749999999998,-0.02841777007331742
1902,-0.828,-0.03997742992632351
1903,-0.827625,-0.05203968368598205
1904,-0.82725,-0.06426946874785806
1905,-0.826875,-0.07666678511195153
1906,-0.8265,-0.08856150756939263
1907,-0.826125,-0.09995363612018124
1908,-0.82575,-0.22135127892419987
1909,-0.8253749999999997,-0.2411199725858625
1910,-0.825,-0.2592133532253503
1911,-0.824625,-0.2752963582382283
1912,-0.82425,-0.2897040502289316
1913,-0.823875,-0.30243642919746005
1914,-0.8235,-0.3134934951438137
1915,-0.823125,-0.32287524806799256
1916,-0.82275,-0.33024662536556165
1917,-0.822375,-0.335607627036521
1918,-0.822,-0.3389582530808706
1919,-0.821625,-0.3402985034986104
1920,-0.82125,-0.3396283782897405
1921,-0.820875,-0.33661281484982586
1922,-0.8205,-0.3315868757833015
1923,-0.820125,-0.3242154984857324
1924,-0.81975,-0.3148337455615535
1925,-0.819375,-0.3037766796151999
1926,-0.819,-0.2913793632511064
1927,-0.818625,-0.277641796469273
1928,-0.81825,-0.2635691670830048
1929,-0.817875,-0.2491614750923015
1930,-0.8175,-0.23475378310159825
1931,-0.817125,-0.22068115371532995
1932,-0.81675,-0.2072786495379316
1933,-0.816375,-0.09710560398248408
1934,-0.816,-0.09073941449821983
1935,-0.815625,-0.08470828761839057
1936,-0.81525,-0.07917975464521376
1937,-0.814875,-0.07415381557868936
1938,-0.8145,-0.06946293911659993
1939,-0.814125,-0.06577725046781538
1940,-0.8137499999999998,-0.06276168702790075
1941,-0.813375,-0.06075131140129099
1942,-0.813,-0.05974612358798612
1943,-0.812625,-0.059578592285768624
1944,-0.81225,-0.060416248796856024
1945,-0.811875,-0.06209156181903084
1946,-0.8115,-0.0647720626545105
1947,-0.811125,-0.06829022000107757
1948,-0.8107499999999997,-0.07264603385873206
1949,-0.810375,-0.0780070355296914
1950,-0.81,-0.0837030998050857
1951,-0.809625,-0.08990175798713246
1952,-0.80925,-0.0961004161691792
1953,-0.808875,-0.20459814870245194
1954,-0.8085,-0.21666040246211046
1955,-0.808125,-0.2280525310128991
1956,-0.8077499999999997,-0.23810440914594785
1957,-0.807375,-0.2464809742568218
1958,-0.807,-0.2538523515543909
1959,-0.806625,-0.25988347843422016
1960,-0.80625,-0.2639042296874397
1961,-0.805875,-0.2662496679184844
1962,-0.8055,-0.26658473052291937
1963,-0.805125,-0.2645743548963096
1964,-0.80475,-0.2605536036430901
1965,-0.804375,-0.2538523515543909
1966,-0.804,-0.245140723839082
1967,-0.803625,-0.23475378310159825
1968,-0.80325,-0.22235646673750475
1969,-0.802875,-0.20828383735123648
1970,-0.8025,-0.09643547877361418
1971,-0.802125,-0.08822644496495766
1972,-0.80175,-0.0796823485518662
1973,-0.801375,-0.0714733147432097
1974,-0.801,-0.0630967496323357
1975,-0.800625,-0.05522277842811416
1976,-0.80025,-0.047683869828327584
1977,-0.799875,-0.040480023832975935
1978,-0.7995,-0.03361124044205928
1979,-0.7991249999999998,-0.02724505095779506
1980,-0.79875,-0.02121392407796578
1981,-0.798375,-0.015685391104788962
1982,-0.798,-0.010994514642699528
1983,-0.797625,-0.00680623208726254
1984,-0.79725,-0.003455606042912944
1985,-0.796875,-0.0007751052074332633
1986,-0.7965,0.0009002078147415313
1987,-0.7961249999999997,0.0014028017213939675
1988,-0.79575,0.00106773911695901
1989,-0.795375,-0.0002725113007808269
1990,-0.795,-0.0026179495318255433
1991,-0.794625,-0.005801044273957654
1992,-0.79425,-0.010156858131612129
1993,-0.793875,-0.015015265895919035
1994,-0.7935,-0.020878861473530824
1995,-0.7931249999999997,-0.02724505095779506
1996,-0.79275,-0.03411383434871172
1997,-0.792375,-0.04115014904184588
1998,-0.792,-0.04818646373498002
1999,-0.791625,-0.055390309730331634
2000,-0.79125,-0.06209156181903084
2001,-0.790875,-0.06845775130329507
2002,-0.7905,-0.07415381557868936
2003,-0.7901249999999999,-0.07917975464521376
2004,-0.78975,-0.08353556850286822
2005,-0.789375,-0.08671866324500033
2006,-0.789,-0.0887290388716101
2007,-0.788625,-0.08939916408048003
2008,-0.78825,-0.08906410147604504
2009,-0.787875,-0.08755631975608774
2010,-0.7875,-0.08504335022282557
2011,-0.787125,-0.08169272417847595
2012,-0.78675,-0.07767197292525643
2013,-0.786375,-0.072981096463167
2014,-0.786,-0.06778762609442512
2015,-0.785625,-0.06209156181903084
2016,-0.78525,-0.05606043493920156
2017,-0.784875,-0.04969424545493734
2018,-0.7845,-0.04316052466845563
2019,-0.784125,-0.03645927257975643
2020,-0.78375,-0.029590489188839775
2021,-0.783375,-0.022889237100140583
2022,-0.783,-0.01618798501144139
2023,-0.782625,-0.009989326829394643
2024,-0.78225,-0.0037906686473479015
2025,-0.781875,0.0015703330236114465
2026,-0.7814999999999998,0.006428740787918358
2027,-0.781125,0.010449492041137869
2028,-0.78075,0.013632586783269984
2029,-0.780375,0.015978025014314702
2030,-0.78,0.017485806734272018
2031,-0.779625,0.017988400640924454
2032,-0.77925,0.017820869338706975
2033,-0.778875,0.016480618920967142
2034,-0.7784999999999997,0.0143027119921399
2035,-0.778125,0.01111961725000779
2036,-0.77775,0.006931334694570801
2037,-0.777375,0.0015703330236114465
2038,-0.777,-0.004795856460652781
2039,-0.776625,-0.01233476506043936
2040,-0.77625,-0.02020873626466091
2041,-0.775875,-0.028920363979969842
2042,-0.7754999999999997,-0.037631991695278796
2043,-0.775125,-0.04651115071280522
2044,-0.77475,-0.055055247125896684
2045,-0.774375,-0.0630967496323357
2046,-0.774,-0.07063565823212227
2047,-0.773625,-0.07700184771638653
2048,-0.77325,-0.08253038068956334
2049,-0.772875,-0.0870537258494353
2050,-0.7725,-0.0904043518937849
2051,-0.772125,-0.09291732142704708
2052,-0.77175,-0.09409004054256943
2053,-0.771375,-0.09425757184478692
2054,-0.771,-0.09341991533369952
2055,-0.770625,-0.09140953970708976
2056,-0.77025,-0.08856150756939263
2057,-0.769875,-0.08470828761839057
2058,-0.7695,-0.07984987985408368
2059,-0.769125,-0.07398628427647187
2060,-0.76875,-0.06728503218777271
2061,-0.768375,-0.05974612358798612
2062,-0.768,-0.05187215238376456
2063,-0.767625,-0.04399818117954302
2064,-0.76725,-0.035956678673103995
2065,-0.7668749999999998,-0.027747644864447488
2066,-0.7665,-0.020041204962443424
2067,-0.766125,-0.012502296362656845
2068,-0.76575,-0.005465981669522696
2069,-0.765375,0.0009002078147415313
2070,-0.765,0.006428740787918358
2071,-0.764625,0.010784554645572831
2072,-0.76425,0.013967649387704943
2073,-0.7638749999999997,0.015978025014314702
2074,-0.7635,0.016480618920967142
2075,-0.763125,0.015978025014314702
2076,-0.76275,0.0143027119921399
2077,-0.762375,0.011957273761095193
2078,-0.762,0.008774179018963074
2079,-0.761625,0.004920959067961042
2080,-0.76125,0.0005651452103065738
2081,-0.7608749999999997,-0.004125731251782859
2082,-0.7605,-0.009319201620524728
2083,-0.760125,-0.014847734593701563
2084,-0.75975,-0.020543798869095863
2085,-0.759375,-0.02657492574892513
2086,-0.759,-0.03277358393097188
2087,-0.758625,-0.038972242113018626
2088,-0.75825,-0.04517090029506538
2089,-0.7578749999999999,-0.051034495872677166
2090,-0.7575,-0.056563028845854
2091,-0.757125,-0.06175649921459586
2092,-0.75675,-0.06611231307225034
2093,-0.756375,-0.0697980017210349
2094,-0.756,-0.07264603385873206
2095,-0.755625,-0.07448887818312433
2096,-0.75525,-0.07532653469421173
2097,-0.754875,-0.07499147208977677
2098,-0.7545,-0.07365122167203693
2099,-0.754125,-0.07113825213877473
2100,-0.75375,-0.06762009479220765
2101,-0.753375,-0.06326428093455319
2102,-0.753,-0.05807081056581132
2103,-0.752625,-0.05220721498819952
2104,-0.7522499999999998,-0.0458410255039353
2105,-0.751875,-0.038972242113018626
2106,-0.7515,-0.03227099002431945
2107,-0.751125,-0.025569737935620257
2108,-0.75075,-0.019036017149138554
2109,-0.750375,-0.01317242157152676
2110,-0.75,-0.007643888598349927
2111,-0.749625,-0.0026179495318255433
2112,-0.7492499999999997,0.001737864325828932
2113,-0.748875,0.005591084276830964
2114,-0.7485,0.008774179018963074
2115,-0.748125,0.01111961725000779
2116,-0.74775,0.012627398969965105
2117,-0.747375,0.013297524178835028
2118,-0.747,0.012962461574400064
2119,-0.746625,0.011622211156660227
2120,-0.7462499999999997,0.009109241623398032
2121,-0.745875,0.005758615579048443
2122,-0.7455,0.001737864325828932
2123,-0.745125,-0.0029530121362605012
2124,-0.74475,-0.007811419900567412
2125,-0.744375,-0.013004890269309288
2126,-0.744,-0.018533423242486108
2127,-0.743625,-0.023894424913445456
2128,-0.7432499999999999,-0.029590489188839775
2129,-0.742875,-0.03495149085979912
2130,-0.7425,-0.03997742992632351
2131,-0.742125,-0.044668306388412946
2132,-0.74175,-0.049191651548284886
2133,-0.741375,-0.05304487149928692
2134,-0.741,-0.05639549754363653
2135,-0.740625,-0.05890846707689872
2136,-0.7402499999999999,-0.0605837800990735
2137,-0.739875,-0.06175649921459586
2138,-0.7395,-0.06192403051681334
2139,-0.739125,-0.06108637400572594
2140,-0.73875,-0.05924352968133367
2141,-0.738375,-0.05639549754363653
2142,-0.738,-0.05270980889485196
2143,-0.737625,-0.047851401130545035
2144,-0.73725,-0.04232286815736822
2145,-0.736875,-0.03578914737088652
2146,-0.7365,-0.02858530137553489
2147,-0.736125,-0.02104639277574831
2148,-0.73575,-0.013339952873744244
2149,-0.735375,-0.005465981669522696
2150,-0.735,0.002240458232481368
2151,-0.7346249999999998,0.00994689813448543
2152,-0.73425,0.01731827543205454
2153,-0.733875,0.02435459012518868
2154,-0.7335,0.03122337351610535
2155,-0.733125,0.03758956300036958
2156,-0.73275,0.043285627275763884
2157,-0.732375,0.0481440350400708
2158,-0.732,0.05216478629329032
2159,-0.7316249999999997,0.05518034973320494
2160,-0.73125,0.057023194057597225
2161,-0.730875,0.057358256662032175
2162,-0.7305,0.0563530688487273
2163,-0.730125,0.05434269322211754
2164,-0.72975,0.05082453587555047
2165,-0.729375,0.046301190715678515
2166,-0.729,0.040940189044719175
2167,-0.7286249999999997,0.03457399956045494
2168,-0.72825,0.02770521616953828
2169,-0.727875,0.02033383887196917
2170,-0.7275,0.012292336365530149
2171,-0.727125,0.0037482399524386826
2172,-0.72675,-0.004963387762870253
2173,-0.726375,-0.013842546780396675
2174,-0.726,-0.022554174495705626
2175,-0.7256249999999999,-0.030930739606579605
2176,-0.72525,-0.038972242113018626
2177,-0.724875,-0.04651115071280522
2178,-0.7245,-0.05371499670815684
2179,-0.724125,-0.06024871749463854
2180,-0.72375,-0.06611231307225034
2181,-0.723375,-0.0713057834409922
2182,-0.723,-0.07566159729864669
2183,-0.722625,-0.07884469204077879
2184,-0.72225,-0.0811901302718235
2185,-0.721875,-0.08269791199178084
2186,-0.7215,-0.08320050589843325
2187,-0.721125,-0.08286544329399831
2188,-0.72075,-0.08169272417847595
2189,-0.720375,-0.0796823485518662
2190,-0.72,-0.07700184771638653
2191,-0.7196250000000001,-0.07331615906760197
2192,-0.7192500000000001,-0.06879281390773001
2193,-0.718875,-0.06343181223677066
2194,-0.7185,-0.057735747961376364
2195,-0.718125,-0.05120202717489465
2196,-0.71775,-0.04450077508619546
2197,-0.717375,-0.037631991695278796
2198,-0.717,-0.030763208304362133
2199,-0.7166250000000001,-0.02406195621566294
2200,-0.71625,-0.017695766731398707
2201,-0.715875,-0.011664639851569444
2202,-0.7155,-0.005968575576175139
2203,-0.715125,-0.00044004260299830567
2204,-0.71475,0.005088490370178521
2205,-0.714375,0.010114429436702913
2206,-0.714,0.014972837201009823
2207,-0.7136250000000001,0.019496182360881777
2208,-0.71325,0.023516933614101287
2209,-0.712875,0.02686755965845088
2210,-0.7125,0.029548060493930557
2211,-0.712125,0.031055842213887876
2212,-0.71175,0.03155843612054031
2213,-0.711375,0.031055842213887876
2214,-0.711,0.029212997889495593
2215,-0.7106250000000001,0.026029903147363486
2216,-0.71025,0.02150655798749153
2217,-0.709875,0.015978025014314702
2218,-0.7095,0.009109241623398032
2219,-0.709125,0.0015703330236114465
2220,-0.70875,-0.006638700785045054
2221,-0.708375,-0.015182797198136519
2222,-0.708,-0.023726893611227984
2223,-0.7076250000000001,-0.03210345872210196
2224,-0.70725,-0.03997742992632351
2225,-0.706875,-0.04701374461945766
2226,-0.7065,-0.05337993410372188
2227,-0.706125,-0.05874093577468122
2228,-0.70575,-0.06326428093455319
2229,-0.705375,-0.06661490697890278
2230,-0.7050000000000001,-0.06879281390773001
2231,-0.7046250000000001,-0.06996553302325237
2232,-0.70425,-0.07013306432546984
2233,-0.703875,-0.06946293911659993
2234,-0.7035,-0.06778762609442512
2235,-0.703125,-0.06527465656116294
2236,-0.70275,-0.06192403051681334
2237,-0.702375,-0.057735747961376364
2238,-0.7020000000000001,-0.05254227759263448
2239,-0.701625,-0.046846213317240176
2240,-0.70125,-0.04064755513519343
2241,-0.700875,-0.03428136565092921
2242,-0.7005,-0.027580113562230016
2243,-0.700125,-0.020878861473530824
2244,-0.69975,-0.014512671989266604
2245,-0.699375,-0.008314013807219856
2246,-0.6990000000000001,-0.0026179495318255433
2247,-0.698625,0.0025755208369163253
2248,-0.69825,0.006931334694570801
2249,-0.697875,0.010617023343355354
2250,-0.6975,0.013800118085487464
2251,-0.697125,0.015978025014314702
2252,-0.69675,0.01731827543205454
2253,-0.696375,0.017653338036489497
2254,-0.6960000000000001,0.01731827543205454
2255,-0.695625,0.01614555631653218
2256,-0.69525,0.0143027119921399
2257,-0.694875,0.011957273761095193
2258,-0.6945,0.008774179018963074
2259,-0.694125,0.005256021672396
2260,-0.69375,0.0012352704191764888
2261,-0.693375,-0.0029530121362605012
2262,-0.6930000000000001,-0.007476357296132455
2263,-0.692625,-0.01183217115378693
2264,-0.69225,-0.01602045370922392
2265,-0.691875,-0.020376267566878395
2266,-0.6915,-0.024732081424532856
2267,-0.691125,-0.028920363979969842
2268,-0.69075,-0.032941115233189364
2269,-0.690375,-0.03645927257975643
2270,-0.6900000000000001,-0.039474836019671077
2271,-0.689625,-0.04182027425071578
2272,-0.68925,-0.04349558727289058
2273,-0.688875,-0.04399818117954302
2274,-0.6885,-0.04349558727289058
2275,-0.688125,-0.04182027425071578
2276,-0.68775,-0.03913977341523611
2277,-0.6873750000000001,-0.03562161606866904
2278,-0.687,-0.031098270908797087
2279,-0.686625,-0.025737269237837743
2280,-0.68625,-0.019538611055790998
2281,-0.685875,-0.0128373589670918
2282,-0.6855,-0.005633512971740182
2283,-0.685125,0.0019053956280464105
2284,-0.68475,0.009611835530050475
2285,-0.6843750000000001,0.017485806734272018
2286,-0.684,0.025024715334058603
2287,-0.683625,0.03206103002719276
2288,-0.68325,0.03876228211589194
2289,-0.682875,0.04479340899572121
2290,-0.6825,0.04998687936446308
2291,-0.682125,0.054175161919900065
2292,-0.68175,0.057358256662032175
2293,-0.6813750000000001,0.059368632288641934
2294,-0.681,0.06037382010194683
2295,-0.680625,0.0605413514041643
2296,-0.68025,0.05987122619529438
2297,-0.679875,0.058195913173119576
2298,-0.6795,0.0555154123376399
2299,-0.679125,0.05216478629329032
2300,-0.67875,0.0481440350400708
2301,-0.6783750000000001,0.043118095973546405
2302,-0.678,0.03758956300036958
2303,-0.677625,0.03155843612054031
2304,-0.67725,0.025024715334058603
2305,-0.676875,0.017988400640924454
2306,-0.6765,0.010784554645572831
2307,-0.676125,0.0030781147435687693
2308,-0.67575,-0.004628325158435302
2309,-0.6753750000000001,-0.01233476506043936
2310,-0.675,-0.019706142358008463
2311,-0.674625,-0.02657492574892513
2312,-0.67425,-0.032941115233189364
2313,-0.673875,-0.0384696482063662
2314,-0.6735,-0.04316052466845563
2315,-0.673125,-0.04701374461945766
2316,-0.6727500000000001,-0.0498617767571548
2317,-0.6723750000000001,-0.051537089779329616
2318,-0.672,-0.05203968368598205
2319,-0.671625,-0.051369558477112116
2320,-0.67125,-0.04969424545493734
2321,-0.670875,-0.046846213317240176
2322,-0.6705,-0.04282546206402066
2323,-0.670125,-0.03779952299749626
2324,-0.6697500000000001,-0.03160086481544952
2325,-0.669375,-0.0243970188200979
2326,-0.669,-0.016523047615876345
2327,-0.668625,-0.007978951202784898
2328,-0.66825,0.00106773911695901
2329,-0.667875,0.01028196073892039
2330,-0.6675,0.01983124496531673
2331,-0.667125,0.029212997889495593
2332,-0.6667500000000001,0.03825968820923951
2333,-0.666375,0.04663625332011348
2334,-0.666,0.05400763061768258
2335,-0.665625,0.0605413514041643
2336,-0.66525,0.06573482177290617
2337,-0.664875,0.0695880417239082
2338,-0.6645,0.07143088604830047
2339,-0.664125,0.07176594865273543
2340,-0.6637500000000001,0.07059322953721307
2341,-0.663375,0.0679127287017334
2342,-0.663,0.06422704005294887
2343,-0.662625,0.05953616359085943
2344,-0.66225,0.054175161919900065
2345,-0.661875,0.04797650373785332
2346,-0.6615,0.04110772034693665
2347,-0.661125,0.03356881174715007
2348,-0.6607500000000001,0.025694840542928518
2349,-0.660375,0.01715074412983706
2350,-0.66,0.008439116414528115
2351,-0.659625,-0.00044004260299830567
2352,-0.65925,-0.009319201620524728
2353,-0.658875,-0.017695766731398707
2354,-0.6585,-0.025737269237837743
2355,-0.658125,-0.03327617783762432
2356,-0.6577500000000001,-0.040144961228540985
2357,-0.657375,-0.046343619410587726
2358,-0.657,-0.05220721498819952
2359,-0.656625,-0.057065622752506436
2360,-0.65625,-0.060918842703508475
2361,-0.655875,-0.06376687484120562
2362,-0.6555,-0.06527465656116294
2363,-0.6551250000000001,-0.06577725046781538
2364,-0.65475,-0.06493959395672798
2365,-0.654375,-0.0630967496323357
2366,-0.654,-0.06024871749463854
2367,-0.653625,-0.05639549754363653
2368,-0.65325,-0.05170462108154708
2369,-0.652875,-0.046343619410587726
2370,-0.6525,-0.04031249253075848
2371,-0.6521250000000001,-0.033778771744276764
2372,-0.65175,-0.02657492574892513
2373,-0.651375,-0.019203548451356037
2374,-0.651,-0.011497108549351959
2375,-0.650625,-0.0037906686473479015
2376,-0.65025,0.0037482399524386826
2377,-0.649875,0.01111961725000779
2378,-0.6495,0.01832346324535942
2379,-0.6491250000000001,0.025024715334058603
2380,-0.64875,0.03122337351610535
2381,-0.648375,0.03691943779149966
2382,-0.648,0.0416103142535891
2383,-0.647625,0.0456310655068086
2384,-0.64725,0.04864662894672325
2385,-0.646875,0.05032194196889804
2386,-0.6465,0.05082453587555047
2387,-0.6461250000000001,0.05015441066668056
2388,-0.64575,0.04831156634228828
2389,-0.645375,0.045296002902373636
2390,-0.645,0.041275251649154125
2391,-0.644625,0.03641684388484722
2392,-0.64425,0.030888310911670394
2393,-0.643875,0.024689652729623642
2394,-0.6435,0.017988400640924454
2395,-0.6431250000000001,0.01111961725000779
2396,-0.64275,0.003915771254656163
2397,-0.642375,-0.0029530121362605012
2398,-0.642,-0.009654264224959684
2399,-0.641625,-0.015852922407006434
2400,-0.64125,-0.021381455380183267
2401,-0.640875,-0.026407394446707658
2402,-0.6405,-0.030763208304362133
2403,-0.640125,-0.03444889695314668
2404,-0.63975,-0.03729692909084384
2405,-0.639375,-0.03964236732188855
2406,-0.639,-0.04115014904184588
2407,-0.638625,-0.04198780555293327
2408,-0.63825,-0.04232286815736822
2409,-0.637875,-0.042155336855150737
2410,-0.6375000000000001,-0.04098261773962838
2411,-0.637125,-0.03913977341523611
2412,-0.63675,-0.03662680388197391
2413,-0.636375,-0.03310864653540685
2414,-0.636,-0.028920363979969842
2415,-0.635625,-0.02406195621566294
2416,-0.63525,-0.018533423242486108
2417,-0.634875,-0.01233476506043936
2418,-0.6345000000000001,-0.005801044273957654
2419,-0.634125,0.0009002078147415313
2420,-0.63375,0.007768991205658194
2421,-0.633375,0.014470243294357388
2422,-0.633,0.020836432778621614
2423,-0.632625,0.02720262226288584
2424,-0.63225,0.03323374914271511
2425,-0.631875,0.038929813418109416
2426,-0.6315000000000001,0.044290815089068764
2427,-0.631125,0.0489816915511582
2428,-0.63075,0.05266738019994275
2429,-0.630375,0.05568294363985738
2430,-0.63,0.057860850568684626
2431,-0.629625,0.05903356968420698
2432,-0.62925,0.05953616359085943
2433,-0.628875,0.05920110098642446
2434,-0.6285000000000001,0.05836344447533706
2435,-0.628125,0.05668813145316226
2436,-0.62775,0.05434269322211754
2437,-0.627375,0.05166219238663787
2438,-0.627,0.04831156634228828
2439,-0.626625,0.04479340899572121
2440,-0.62625,0.040940189044719175
2441,-0.625875,0.037086969093717136
2442,-0.6255000000000001,0.033066217840497625
2443,-0.625125,0.029045466587278117
2444,-0.62475,0.025024715334058603
2445,-0.624375,0.02133902668527405
2446,-0.624,0.017988400640924454
2447,-0.623625,0.015140368503227303
2448,-0.62325,0.013129992876617548
2449,-0.6228750000000001,0.011622211156660227
2450,-0.6225,0.010952085947790312
2451,-0.622125,0.01111961725000779
2452,-0.62175,0.012292336365530149
2453,-0.621375,0.0143027119921399
2454,-0.621,0.01715074412983706
2455,-0.620625,0.020501370174186646
2456,-0.62025,0.02452212142740617
2457,-0.6198750000000001,0.02887793528506064
2458,-0.6195,0.033903874351585025
2459,-0.619125,0.03943240732476186
2460,-0.61875,0.045296002902373636
2461,-0.618375,0.05132712978220292
2462,-0.618,0.05752578796424966
2463,-0.617625,0.06372444614629641
2464,-0.61725,0.06992310432834316
2465,-0.6168750000000001,0.07578669990595494
2466,-0.6165,0.08148276418134927
2467,-0.616125,0.0868437658523086
2468,-0.61575,0.09203723622105048
2469,-0.615375,0.09672811268313992
2470,-0.615,0.2025029156860237
2471,-0.614625,0.21054441819246272
2472,-0.61425,0.21758073288559687
2473,-0.6138750000000001,0.22260667195212125
2474,-0.6135,0.22595729799647085
2475,-0.613125,0.2269624858097757
2476,-0.61275,0.224952110183166
2477,-0.612375,0.2199261711166416
2478,-0.612,0.2115496060057676
2479,-0.611625,0.20015747745497894
2480,-0.61125,0.0927073614299204
2481,-0.6108750000000001,0.08416326501682893
2482,-0.6105,0.07427891818599763
2483,-0.610125,0.06355691484407892
2484,-0.60975,0.052332317595507785
2485,-0.609375,0.04060512644028422
2486,-0.609,0.029045466587278117
2487,-0.608625,0.017988400640924454
2488,-0.60825,0.007433928601223237
2489,-0.607875,-0.0021153556251731075
2490,-0.6075,-0.010826983340482044
2491,-0.607125,-0.018198360638051154
2492,-0.60675,-0.024732081424532856
2493,-0.606375,-0.030260614397709686
2494,-0.606,-0.03478395955758164
2495,-0.605625,-0.03813458560193124
2496,-0.6052500000000001,-0.040480023832975935
2497,-0.604875,-0.04165274294849831
2498,-0.6045,-0.04198780555293327
2499,-0.604125,-0.04131768034406334
2500,-0.60375,-0.03964236732188855
2501,-0.603375,-0.03729692909084384
2502,-0.603,-0.03411383434871172
2503,-0.602625,-0.029925551793274725
2504,-0.6022500000000001,-0.025067144028967814
2505,-0.601875,-0.01937107975357351
2506,-0.6015,-0.01317242157152676
2507,-0.601125,-0.006471169482827582
2508,-0.60075,0.0005651452103065738
2509,-0.600375,0.007433928601223237
2510,-0.6,0.0143027119921399
2511,-0.599625,0.020836432778621614
2512,-0.5992500000000001,0.0267000283562334
2513,-0.598875,0.03189349872497526
2514,-0.5985,0.03624931258262974
2515,-0.598125,0.039767469929196816
2516,-0.59775,0.042280439462459005
2517,-0.597375,0.043955752484633806
2518,-0.597,0.04479340899572121
2519,-0.596625,0.04479340899572121
2520,-0.5962500000000001,0.04378822118241633
2521,-0.595875,0.04177784555580657
2522,-0.5955,0.039097344720326895
2523,-0.595125,0.03524412476932486
2524,-0.59475,0.030553248307235437
2525,-0.594375,0.025024715334058603
2526,-0.594,0.018826057152011855
2527,-0.593625,0.011957273761095193
2528,-0.59325,0.004753427765743563
2529,-0.592875,-0.0024504182296080645
2530,-0.5925,-0.009821795527177171
2531,-0.592125,-0.017025641522528792
2532,-0.59175,-0.023894424913445456
2533,-0.591375,-0.03042814569992716
2534,-0.591,-0.03645927257975643
2535,-0.590625,-0.04198780555293327
2536,-0.59025,-0.04701374461945766
2537,-0.589875,-0.05170462108154708
2538,-0.5895,-0.05555784103254912
2539,-0.589125,-0.05874093577468122
2540,-0.58875,-0.060918842703508475
2541,-0.588375,-0.06192403051681334
2542,-0.588,-0.06192403051681334
2543,-0.5876250000000001,-0.0605837800990735
2544,-0.58725,-0.05840587317024627
2545,-0.586875,-0.055055247125896684
2546,-0.5865,-0.051034495872677166
2547,-0.586125,-0.04600855680615278
2548,-0.58575,-0.04081508643741091
2549,-0.585375,-0.03478395955758164
2550,-0.585,-0.02841777007331742
2551,-0.5846250000000001,-0.021884049286835714
2552,-0.58425,-0.015350328500354003
2553,-0.583875,-0.008649076411654813
2554,-0.5835,-0.002282886927390586
2555,-0.583125,0.003915771254656163
2556,-0.58275,0.009611835530050475
2557,-0.582375,0.014972837201009823
2558,-0.582,0.019663713663099255
2559,-0.5816250000000001,0.023516933614101287
2560,-0.58125,0.02686755965845088
2561,-0.580875,0.029380529191713075
2562,-0.5805,0.03122337351610535
2563,-0.580125,0.03189349872497526
2564,-0.57975,0.03189349872497526
2565,-0.579375,0.031055842213887876
2566,-0.579,0.029380529191713075
2567,-0.5786250000000001,0.02703509096066836
2568,-0.57825,0.024187058822971202
2569,-0.577875,0.020668901476404135
2570,-0.5775,0.016648150223184617
2571,-0.577125,0.01212480506331267
2572,-0.57675,0.00709886599678828
2573,-0.576375,0.0014028017213939675
2574,-0.576,-0.004628325158435302
2575,-0.575625,-0.010994514642699528
2576,-0.57525,-0.017695766731398707
2577,-0.574875,-0.024564550122315384
2578,-0.5745,-0.03160086481544952
2579,-0.574125,-0.03830211690414871
2580,-0.57375,-0.04483583769063042
2581,-0.573375,-0.0508669645704597
2582,-0.573,-0.056227966241419035
2583,-0.572625,-0.0605837800990735
2584,-0.57225,-0.06426946874785806
2585,-0.571875,-0.06694996958333774
2586,-0.5715,-0.06862528260551254
2587,-0.571125,-0.06929540781438247
2588,-0.57075,-0.06929540781438247
2589,-0.570375,-0.06845775130329507
2590,-0.5700000000000001,-0.06694996958333774
2591,-0.569625,-0.0647720626545105
2592,-0.56925,-0.06209156181903084
2593,-0.568875,-0.05874093577468122
2594,-0.5685,-0.055055247125896684
2595,-0.568125,-0.0508669645704597
2596,-0.56775,-0.04651115071280522
2597,-0.567375,-0.042155336855150737
2598,-0.5670000000000001,-0.03779952299749626
2599,-0.566625,-0.03361124044205928
2600,-0.56625,-0.029590489188839775
2601,-0.565875,-0.025569737935620257
2602,-0.5655,-0.022219111891270668
2603,-0.565125,-0.019203548451356037
2604,-0.56475,-0.016690578918093835
2605,-0.564375,-0.014847734593701563
2606,-0.5640000000000001,-0.013675015478179205
2607,-0.563625,-0.01317242157152676
2608,-0.56325,-0.01350748417596172
2609,-0.562875,-0.014345140687049118
2610,-0.5625,-0.01602045370922392
2611,-0.562125,-0.018533423242486108
2612,-0.56175,-0.02154898668240074
2613,-0.561375,-0.025569737935620257
2614,-0.561,-0.030093083095492208
2615,-0.560625,-0.035119022162016594
2616,-0.56025,-0.04064755513519343
2617,-0.559875,-0.046343619410587726
2618,-0.5595,-0.05237474629041701
2619,-0.559125,-0.0582383418680288
2620,-0.55875,-0.06426946874785806
2621,-0.558375,-0.06996553302325237
2622,-0.558,-0.07532653469421173
2623,-0.557625,-0.08018494245851862
2624,-0.55725,-0.08454075631617311
2625,-0.556875,-0.08805891366274017
2626,-0.5565,-0.09090694580043733
2627,-0.556125,-0.09274979012482963
2628,-0.55575,-0.09375497793813446
2629,-0.5553750000000001,-0.093587446635917
2630,-0.555,-0.09224719621817717
2631,-0.554625,-0.09006928928934993
2632,-0.55425,-0.08722125715165277
2633,-0.553875,-0.08353556850286822
2634,-0.5535,-0.07901222334299626
2635,-0.553125,-0.07398628427647187
2636,-0.55275,-0.06829022000107757
2637,-0.5523750000000001,-0.06192403051681334
2638,-0.552,-0.055055247125896684
2639,-0.551625,-0.047851401130545035
2640,-0.55125,-0.040480023832975935
2641,-0.550875,-0.03344370913984181
2642,-0.5505,-0.0269099883533601
2643,-0.550125,-0.02104639277574831
2644,-0.54975,-0.016355516313658877
2645,-0.5493750000000001,-0.012669827664874319
2646,-0.549,-0.009821795527177171
2647,-0.548625,-0.00814648250500237
2648,-0.54825,-0.006973763389480012
2649,-0.547875,-0.006638700785045054
2650,-0.5475,-0.007141294691697498
2651,-0.547125,-0.008481545109437327
2652,-0.54675,-0.010491920736047084
2653,-0.546375,-0.013339952873744244
2654,-0.546,-0.017025641522528792
2655,-0.545625,-0.021381455380183267
2656,-0.54525,-0.02623986314449017
2657,-0.544875,-0.031935927419884484
2658,-0.5445,-0.03796705429971376
2659,-0.544125,-0.044668306388412946
2660,-0.54375,-0.051537089779329616
2661,-0.543375,-0.05840587317024627
2662,-0.543,-0.0656097191655979
2663,-0.542625,-0.07264603385873206
2664,-0.54225,-0.07917975464521376
2665,-0.541875,-0.08571347543169547
2666,-0.5415,-0.0919121336137422
2667,-0.541125,-0.09744066658691905
2668,-0.54075,-0.20459814870245194
2669,-0.540375,-0.2129747138133259
2670,-0.54,-0.21967596590202504
2671,-0.539625,-0.22470190496854947
2672,-0.53925,-0.22872265622176896
2673,-0.538875,-0.2310680944528137
2674,-0.5385,-0.2317382196616836
2675,-0.538125,-0.23140315705724865
2676,-0.5377500000000001,-0.2293927814306389
2677,-0.537375,-0.2257070927818544
2678,-0.537,-0.22001102850646004
2679,-0.536625,-0.21263965120889092
2680,-0.53625,-0.20325789828471208
2681,-0.535875,-0.09593288486696172
2682,-0.5355,-0.08956669538269747
2683,-0.535125,-0.08236284938734587
2684,-0.5347500000000001,-0.07499147208977677
2685,-0.534375,-0.06728503218777271
2686,-0.534,-0.05974612358798612
2687,-0.533625,-0.05270980889485196
2688,-0.53325,-0.0458410255039353
2689,-0.532875,-0.039474836019671077
2690,-0.5325,-0.033778771744276764
2691,-0.532125,-0.02841777007331742
2692,-0.5317500000000001,-0.023894424913445456
2693,-0.531375,-0.020041204962443424
2694,-0.531,-0.017360704126963746
2695,-0.530625,-0.015350328500354003
2696,-0.53025,-0.014512671989266604
2697,-0.529875,-0.014680203291484076
2698,-0.5295,-0.015685391104788962
2699,-0.529125,-0.01752823542918124
2700,-0.52875,-0.020543798869095863
2701,-0.528375,-0.02406195621566294
2702,-0.528,-0.028250238771099924
2703,-0.527625,-0.03310864653540685
2704,-0.52725,-0.03830211690414871
2705,-0.526875,-0.04399818117954302
2706,-0.5265,-0.04969424545493734
2707,-0.526125,-0.05555784103254912
2708,-0.52575,-0.0614214366101609
2709,-0.525375,-0.06728503218777271
2710,-0.525,-0.07281356516094953
2711,-0.524625,-0.0780070355296914
2712,-0.52425,-0.08253038068956334
2713,-0.523875,-0.08671866324500033
2714,-0.5235,-0.0902368205915674
2715,-0.523125,-0.09291732142704708
2716,-0.52275,-0.09476016575143936
2717,-0.522375,-0.09576535356474425
2718,-0.522,-0.09576535356474425
2719,-0.521625,-0.09492769705365683
2720,-0.52125,-0.09341991533369952
2721,-0.520875,-0.09090694580043733
2722,-0.5205,-0.08772385105830523
2723,-0.5201250000000001,-0.0838706311073032
2724,-0.51975,-0.07934728594743123
2725,-0.519375,-0.07415381557868936
2726,-0.519,-0.06845775130329507
2727,-0.518625,-0.06242662442346579
2728,-0.51825,-0.05639549754363653
2729,-0.517875,-0.050196839361589765
2730,-0.5175,-0.04433324378397798
2731,-0.5171250000000001,-0.03880471081080116
2732,-0.51675,-0.03344370913984181
2733,-0.516375,-0.02841777007331742
2734,-0.516,-0.023894424913445456
2735,-0.515625,-0.01987367366022595
2736,-0.51525,-0.016523047615876345
2737,-0.514875,-0.013842546780396675
2738,-0.5145,-0.011999702456004402
2739,-0.514125,-0.010826983340482044
2740,-0.51375,-0.010659452038264572
2741,-0.513375,-0.011497108549351959
2742,-0.513,-0.01317242157152676
2743,-0.512625,-0.015350328500354003
2744,-0.51225,-0.018533423242486108
2745,-0.511875,-0.022051580589053186
2746,-0.5115,-0.0260723318422727
2747,-0.511125,-0.03042814569992716
2748,-0.51075,-0.035119022162016594
2749,-0.510375,-0.03997742992632351
2750,-0.51,-0.04483583769063042
2751,-0.509625,-0.04969424545493734
2752,-0.50925,-0.05438512191702676
2753,-0.508875,-0.05890846707689872
2754,-0.5085,-0.0630967496323357
2755,-0.508125,-0.06728503218777271
2756,-0.50775,-0.07113825213877473
2757,-0.507375,-0.07448887818312433
2758,-0.507,-0.07750444162303896
2759,-0.506625,-0.07984987985408368
2760,-0.50625,-0.0820277867829109
2761,-0.505875,-0.08353556850286822
2762,-0.5055000000000001,-0.08470828761839057
2763,-0.505125,-0.0853784128272605
2764,-0.50475,-0.0853784128272605
2765,-0.504375,-0.08487581892060807
2766,-0.504,-0.0838706311073032
2767,-0.503625,-0.0821953180851284
2768,-0.5032500000000001,-0.0795148172496487
2769,-0.5028750000000001,-0.07649925380973407
2770,-0.5025000000000001,-0.07281356516094953
2771,-0.502125,-0.06862528260551254
2772,-0.50175,-0.06426946874785806
2773,-0.501375,-0.05974612358798612
2774,-0.501,-0.055055247125896684
2775,-0.500625,-0.050196839361589765
2776,-0.5002500000000001,-0.045505962899500325
2777,-0.499875,-0.04081508643741091
2778,-0.4995,-0.03629174127753895
2779,-0.499125,-0.031935927419884484
2780,-0.49875,-0.027580113562230016
2781,-0.498375,-0.023726893611227984
2782,-0.498,-0.020376267566878395
2783,-0.497625,-0.01752823542918124
2784,-0.49725,-0.015350328500354003
2785,-0.496875,-0.013675015478179205
2786,-0.4965,-0.012669827664874319
2787,-0.496125,-0.012502296362656845
2788,-0.49575,-0.013004890269309288
2789,-0.495375,-0.014345140687049118
2790,-0.495,-0.01685811022031132
2791,-0.494625,-0.020376267566878395
2792,-0.49425,-0.024732081424532856
2793,-0.493875,-0.029758020491057243
2794,-0.4935,-0.03578914737088652
2795,-0.493125,-0.042155336855150737
2796,-0.49275,-0.048856588943849935
2797,-0.492375,-0.055892903636984084
2798,-0.492,-0.06292921833011822
2799,-0.491625,-0.06996553302325237
2800,-0.49125,-0.07666678511195153
2801,-0.490875,-0.08286544329399831
2802,-0.4905,-0.08889657017382757
2803,-0.490125,-0.09392250924035198
2804,-0.48975,-0.09811079179578898
2805,-0.489375,-0.20258777307584214
2806,-0.489,-0.20627346172462668
2807,-0.488625,-0.2079487747468015
2808,-0.48825,-0.20761371214236649
2809,-0.487875,-0.20493321130688685
2810,-0.4875,-0.2005773974492324
2811,-0.487125,-0.09710560398248408
2812,-0.48675,-0.09325238403148203
2813,-0.486375,-0.08856150756939263
2814,-0.486,-0.08303297459621578
2815,-0.485625,-0.07700184771638653
2816,-0.48525,-0.07013306432546984
2817,-0.484875,-0.0630967496323357
2818,-0.4845,-0.0557253723347666
2819,-0.484125,-0.048353995037197485
2820,-0.48375,-0.04131768034406334
2821,-0.483375,-0.03478395955758164
2822,-0.483,-0.02858530137553489
2823,-0.482625,-0.02305676840235807
2824,-0.48225,-0.018030829335833682
2825,-0.481875,-0.01350748417596172
2826,-0.4815,-0.009486732922742214
2827,-0.481125,-0.006136106878392611
2828,-0.48075,-0.003455606042912944
2829,-0.480375,-0.0017802930207381426
2830,-0.48,-0.0007751052074332633
2831,-0.479625,-0.0007751052074332633
2832,-0.47925,-0.0012776991140857064
2833,-0.478875,-0.002785480834043022
2834,-0.4785,-0.005130919065087738
2835,-0.478125,-0.008314013807219856
2836,-0.47775,-0.012167233758221886
2837,-0.477375,-0.01719317282474628
2838,-0.477,-0.02305676840235807
2839,-0.476625,-0.029758020491057243
2840,-0.47625,-0.03729692909084384
2841,-0.475875,-0.04517090029506538
2842,-0.4755,-0.05337993410372188
2843,-0.475125,-0.0614214366101609
2844,-0.47475,-0.06912787651216498
2845,-0.474375,-0.07616419120529913
2846,-0.474,-0.08253038068956334
2847,-0.473625,-0.08822644496495766
2848,-0.47325,-0.09274979012482963
2849,-0.472875,-0.09643547877361418
2850,-0.4725,-0.0986133857024414
2851,-0.472125,-0.09978610481796374
2852,-0.47175,-0.09978610481796374
2853,-0.471375,-0.0986133857024414
2854,-0.471,-0.09643547877361418
2855,-0.470625,-0.09291732142704708
2856,-0.47025,-0.0887290388716101
2857,-0.469875,-0.08336803720065075
2858,-0.4695,-0.07750444162303896
2859,-0.469125,-0.0713057834409922
2860,-0.46875,-0.0647720626545105
2861,-0.468375,-0.05790327926359382
2862,-0.468,-0.05120202717489465
2863,-0.467625,-0.044165712481760495
2864,-0.46725,-0.03712939778862635
2865,-0.466875,-0.03042814569992716
2866,-0.4665,-0.0235593623090105
2867,-0.466125,-0.017360704126963746
2868,-0.46575,-0.011664639851569444
2869,-0.465375,-0.006638700785045054
2870,-0.465,-0.0024504182296080645
2871,-0.464625,0.0007326765125240526
2872,-0.46425,0.0030781147435687693
2873,-0.463875,0.004418365161308606
2874,-0.4635,0.004418365161308606
2875,-0.463125,0.0034131773480037264
2876,-0.46275,0.0012352704191764888
2877,-0.462375,-0.0017802930207381426
2878,-0.462,-0.005801044273957654
2879,-0.461625,-0.010994514642699528
2880,-0.46125,-0.016690578918093835
2881,-0.460875,-0.02305676840235807
2882,-0.4605,-0.030260614397709686
2883,-0.460125,-0.03779952299749626
2884,-0.45975,-0.045505962899500325
2885,-0.459375,-0.05337993410372188
2886,-0.459,-0.06108637400572594
2887,-0.458625,-0.06845775130329507
2888,-0.45825,-0.07549406599642919
2889,-0.457875,-0.08169272417847595
2890,-0.4575,-0.08722125715165277
2891,-0.457125,-0.09174460231152473
2892,-0.45675,-0.09543029096030926
2893,-0.456375,-0.097775729191354
2894,-0.456,-0.09928351091131132
2895,-0.455625,-0.09961857351574627
2896,-0.45525,-0.09878091700465888
2897,-0.454875,-0.0969380726802666
2898,-0.4545,-0.09425757184478692
2899,-0.454125,-0.0904043518937849
2900,-0.45375,-0.08571347543169547
2901,-0.453375,-0.08052000506295359
2902,-0.453,-0.07448887818312433
2903,-0.452625,-0.06778762609442512
2904,-0.45225,-0.06075131140129099
2905,-0.451875,-0.05371499670815684
2906,-0.4515,-0.04667868201502269
2907,-0.451125,-0.040144961228540985
2908,-0.45075,-0.033946303046494236
2909,-0.450375,-0.028250238771099924
2910,-0.45,-0.02305676840235807
2911,-0.449625,-0.018198360638051154
2912,-0.44925,-0.013842546780396675
2913,-0.448875,-0.010324389433829614
2914,-0.4485,-0.007141294691697498
2915,-0.448125,-0.004795856460652781
2916,-0.44775,-0.0031205434384779795
2917,-0.447375,-0.0024504182296080645
2918,-0.447,-0.002282886927390586
2919,-0.446625,-0.0031205434384779795
2920,-0.44625,-0.004795856460652781
2921,-0.445875,-0.006973763389480012
2922,-0.4455,-0.009989326829394643
2923,-0.445125,-0.01350748417596172
2924,-0.44475,-0.01752823542918124
2925,-0.444375,-0.021884049286835714
2926,-0.444,-0.026407394446707658
2927,-0.443625,-0.03126580221101456
2928,-0.44325,-0.03612420997532148
2929,-0.442875,-0.04098261773962838
2930,-0.4425,-0.045505962899500325
2931,-0.442125,-0.0498617767571548
2932,-0.44175,-0.0540500593125918
2933,-0.441375,-0.057735747961376364
2934,-0.441,-0.061253905307943425
2935,-0.440625,-0.06426946874785806
2936,-0.44025,-0.06678243828112025
2937,-0.439875,-0.06896034520994747
2938,-0.4395,-0.07046812692990481
2939,-0.439125,-0.0713057834409922
2940,-0.43875,-0.07164084604542717
2941,-0.438375,-0.07097072083655727
2942,-0.43799999999999994,-0.06929540781438247
2943,-0.437625,-0.06678243828112025
2944,-0.43725,-0.0630967496323357
2945,-0.436875,-0.05874093577468122
2946,-0.4365,-0.05337993410372188
2947,-0.436125,-0.04701374461945766
2948,-0.43575,-0.04031249253075848
2949,-0.435375,-0.03277358393097188
2950,-0.435,-0.024732081424532856
2951,-0.434625,-0.016355516313658877
2952,-0.43425,-0.008314013807219856
2953,-0.433875,-0.00044004260299830567
2954,-0.4335,0.006931334694570801
2955,-0.433125,0.013297524178835028
2956,-0.43275,0.018826057152011855
2957,-0.432375,0.02334940231188381
2958,-0.43200000000000005,0.02653249705401592
2959,-0.431625,0.028710403982843156
2960,-0.43125,0.029548060493930557
2961,-0.430875,0.029212997889495593
2962,-0.4305,0.0275376848673208
2963,-0.430125,0.02435459012518868
2964,-0.42975,0.020166307569751688
2965,-0.429375,0.015140368503227303
2966,-0.429,0.009109241623398032
2967,-0.428625,0.002407989534698847
2968,-0.42825,-0.004963387762870253
2969,-0.427875,-0.0128373589670918
2970,-0.4275,-0.02104639277574831
2971,-0.427125,-0.02942295788662229
2972,-0.42675,-0.03779952299749626
2973,-0.426375,-0.046343619410587726
2974,-0.426,-0.05472018452146172
2975,-0.425625,-0.06276168702790075
2976,-0.42525,-0.07030059562768734
2977,-0.424875,-0.07700184771638653
2978,-0.4245,-0.08320050589843325
2979,-0.424125,-0.08856150756939263
2980,-0.42375,-0.09274979012482963
2981,-0.423375,-0.09576535356474425
2982,-0.423,-0.09744066658691905
2983,-0.422625,-0.09794326049357147
2984,-0.42225,-0.09760819788913652
2985,-0.421875,-0.0961004161691792
2986,-0.4215,-0.09375497793813446
2987,-0.421125,-0.0904043518937849
2988,-0.42075,-0.08621606933834791
2989,-0.420375,-0.08102259896960604
2990,-0.42,-0.07482394078755927
2991,-0.419625,-0.06762009479220765
2992,-0.41925,-0.05974612358798612
2993,-0.418875,-0.05120202717489465
2994,-0.4185,-0.042490399459585694
2995,-0.418125,-0.03361124044205928
2996,-0.41775,-0.024899612726750345
2997,-0.417375,-0.01685811022031132
2998,-0.417,-0.009319201620524728
2999,-0.416625,-0.0024504182296080645
3000,-0.41625,0.0034131773480037264
3001,-0.415875,0.008774179018963074
3002,-0.4155,0.013632586783269984
3003,-0.415125,0.017485806734272018
3004,-0.41475,0.020668901476404135
3005,-0.414375,0.023014339707448844
3006,-0.414,0.024187058822971202
3007,-0.413625,0.02435459012518868
3008,-0.41325,0.023516933614101287
3009,-0.412875,0.02150655798749153
3010,-0.4125,0.01899358845422933
3011,-0.412125,0.015475431107662259
3012,-0.41175,0.01128714855222527
3013,-0.411375,0.006596272090135836
3014,-0.411,0.0012352704191764888
3015,-0.410625,-0.004628325158435302
3016,-0.41025,-0.011162045944917
3017,-0.409875,-0.018198360638051154
3018,-0.4095,-0.025569737935620257
3019,-0.409125,-0.03310864653540685
3020,-0.40875,-0.04064755513519343
3021,-0.408375,-0.04818646373498002
3022,-0.408,-0.055390309730331634
3023,-0.407625,-0.0622590931212483
3024,-0.40725,-0.06829022000107757
3025,-0.406875,-0.07365122167203693
3026,-0.4065,-0.0778395042274739
3027,-0.406125,-0.08102259896960604
3028,-0.40575,-0.08336803720065075
3029,-0.405375,-0.08470828761839057
3030,-0.405,-0.08487581892060807
3031,-0.404625,-0.0837030998050857
3032,-0.40425,-0.08169272417847595
3033,-0.403875,-0.07850962943634383
3034,-0.4035,-0.07448887818312433
3035,-0.403125,-0.06963047041881743
3036,-0.40275,-0.06410193744564058
3037,-0.402375,-0.05790327926359382
3038,-0.402,-0.051034495872677166
3039,-0.401625,-0.04366311857510806
3040,-0.40125,-0.035956678673103995
3041,-0.400875,-0.028250238771099924
3042,-0.4005,-0.020376267566878395
3043,-0.400125,-0.0128373589670918
3044,-0.39975,-0.005633512971740182
3045,-0.399375,0.00106773911695901
3046,-0.399,0.00709886599678828
3047,-0.398625,0.01212480506331267
3048,-0.39825,0.01631308761874966
3049,-0.397875,0.01916111975644681
3050,-0.3975,0.021003964080839092
3051,-0.397125,0.02150655798749153
3052,-0.39675,0.020836432778621614
3053,-0.396375,0.01899358845422933
3054,-0.396,0.015978025014314702
3055,-0.395625,0.011789742458877704
3056,-0.39525,0.006763803392353315
3057,-0.394875,0.0007326765125240526
3058,-0.3945,-0.006136106878392611
3059,-0.394125,-0.013675015478179205
3060,-0.39375,-0.02154898668240074
3061,-0.393375,-0.029925551793274725
3062,-0.393,-0.03813458560193124
3063,-0.392625,-0.046176088108370254
3064,-0.39225,-0.05388252801037432
3065,-0.391875,-0.06108637400572594
3066,-0.3915,-0.06745256348999018
3067,-0.391125,-0.07331615906760197
3068,-0.39075,-0.07817456683190888
3069,-0.390375,-0.0820277867829109
3070,-0.39,-0.08504335022282557
3071,-0.389625,-0.08688619454721783
3072,-0.38925,-0.08805891366274017
3073,-0.388875,-0.08822644496495766
3074,-0.3885,-0.08738878845387027
3075,-0.388125,-0.08571347543169547
3076,-0.38775,-0.08320050589843325
3077,-0.387375,-0.07984987985408368
3078,-0.387,-0.07566159729864669
3079,-0.386625,-0.07080318953433977
3080,-0.38625,-0.06510712525894546
3081,-0.385875,-0.05874093577468122
3082,-0.3855,-0.051369558477112116
3083,-0.385125,-0.04399818117954302
3084,-0.38475,-0.035956678673103995
3085,-0.384375,-0.027915176166664973
3086,-0.384,-0.019706142358008463
3087,-0.383625,-0.011664639851569444
3088,-0.38325,-0.0037906686473479015
3089,-0.382875,0.0034131773480037264
3090,-0.3825,0.010114429436702913
3091,-0.382125,0.015642962409879745
3092,-0.38175,0.020166307569751688
3093,-0.381375,0.02334940231188381
3094,-0.381,0.025024715334058603
3095,-0.380625,0.02535977793849356
3096,-0.38025,0.024019527520753724
3097,-0.379875,0.021171495383056568
3098,-0.3795,0.016815681525402096
3099,-0.379125,0.01111961725000779
3100,-0.37875,0.004250833859091127
3101,-0.378375,-0.0036231373451304227
3102,-0.37799999999999995,-0.012167233758221886
3103,-0.377625,-0.02121392407796578
3104,-0.37725,-0.03042814569992716
3105,-0.376875,-0.040144961228540985
3106,-0.3765,-0.04969424545493734
3107,-0.376125,-0.059075998379116174
3108,-0.37575,-0.06829022000107757
3109,-0.375375,-0.07700184771638653
3110,-0.375,-0.08504335022282557
3111,-0.374625,-0.09258225882261213
3112,-0.37425,-0.09961857351574627
3113,-0.373875,-0.2116344633955861
3114,-0.3735,-0.22202140413306976
3115,-0.373125,-0.23039796924394376
3116,-0.37275,-0.23676415872820802
3117,-0.372375,-0.2407849099814275
3118,-0.37200000000000005,-0.2417900977947324
3119,-0.371625,-0.2404498473769925
3120,-0.37125,-0.23609403351933805
3121,-0.370875,-0.22872265622176896
3122,-0.3705,-0.2183357154842852
3123,-0.370125,-0.20493321130688685
3124,-0.36975,-0.09476016575143936
3125,-0.369375,-0.08588100673391294
3126,-0.369,-0.07599665990308163
3127,-0.368625,-0.0656097191655979
3128,-0.36825,-0.05472018452146172
3129,-0.367875,-0.04349558727289058
3130,-0.3675,-0.03243852132653692
3131,-0.367125,-0.02154898668240074
3132,-0.36675,-0.011162045944917
3133,-0.366375,-0.001612761718520664
3134,-0.366,0.00709886599678828
3135,-0.365625,0.014470243294357388
3136,-0.36525,0.020668901476404135
3137,-0.364875,0.02535977793849356
3138,-0.3645,0.02887793528506064
3139,-0.364125,0.030720779609452912
3140,-0.36375,0.03139090481832283
3141,-0.363375,0.030553248307235437
3142,-0.363,0.02854287268062568
3143,-0.362625,0.02552730924071104
3144,-0.36225,0.021841620591926486
3145,-0.361875,0.017485806734272018
3146,-0.3615,0.012459867667747626
3147,-0.361125,0.006763803392353315
3148,-0.36075,0.0007326765125240526
3149,-0.360375,-0.005801044273957654
3150,-0.36,-0.012669827664874319
3151,-0.359625,-0.01987367366022595
3152,-0.35925,-0.02741258226001253
3153,-0.358875,-0.03478395955758164
3154,-0.3585,-0.04182027425071578
3155,-0.358125,-0.048856588943849935
3156,-0.35775,-0.055390309730331634
3157,-0.357375,-0.061253905307943425
3158,-0.357,-0.06661490697890278
3159,-0.356625,-0.0713057834409922
3160,-0.35625,-0.0746564094853418
3161,-0.355875,-0.07700184771638653
3162,-0.3555,-0.0780070355296914
3163,-0.355125,-0.0780070355296914
3164,-0.35475,-0.07683431641416903
3165,-0.354375,-0.07482394078755927
3166,-0.354,-0.07180837734764464
3167,-0.353625,-0.0681226886988601
3168,-0.35325,-0.06410193744564058
3169,-0.352875,-0.05974612358798612
3170,-0.3525,-0.0548877158236792
3171,-0.352125,-0.04969424545493734
3172,-0.35175,-0.044165712481760495
3173,-0.351375,-0.03830211690414871
3174,-0.351,-0.03227099002431945
3175,-0.350625,-0.02590480054005521
3176,-0.35025,-0.01937107975357351
3177,-0.349875,-0.013004890269309288
3178,-0.3495,-0.00680623208726254
3179,-0.349125,-0.0011101678118682276
3180,-0.34875,0.004083302556873641
3181,-0.348375,0.008941710321180553
3182,-0.348,0.012627398969965105
3183,-0.347625,0.015475431107662259
3184,-0.34725,0.01715074412983706
3185,-0.346875,0.017820869338706975
3186,-0.3465,0.017485806734272018
3187,-0.346125,0.01631308761874966
3188,-0.34575,0.0143027119921399
3189,-0.345375,0.01128714855222527
3190,-0.345,0.007433928601223237
3191,-0.344625,0.0025755208369163253
3192,-0.34425,-0.0029530121362605012
3193,-0.343875,-0.009151670318307256
3194,-0.3435,-0.01602045370922392
3195,-0.343125,-0.02305676840235807
3196,-0.34275,-0.030093083095492208
3197,-0.342375,-0.03729692909084384
3198,-0.342,-0.04450077508619546
3199,-0.341625,-0.051369558477112116
3200,-0.34125,-0.0582383418680288
3201,-0.340875,-0.06443700005007554
3202,-0.3405,-0.07013306432546984
3203,-0.340125,-0.07549406599642919
3204,-0.33975,-0.07984987985408368
3205,-0.339375,-0.08353556850286822
3206,-0.339,-0.08621606933834791
3207,-0.338625,-0.08822644496495766
3208,-0.33825,-0.08923163277826254
3209,-0.337875,-0.08923163277826254
3210,-0.3375,-0.08822644496495766
3211,-0.337125,-0.08638360064056537
3212,-0.33675,-0.08336803720065075
3213,-0.336375,-0.07934728594743123
3214,-0.336,-0.07432134688090683
3215,-0.335625,-0.06845775130329507
3216,-0.33525,-0.0614214366101609
3217,-0.334875,-0.05388252801037432
3218,-0.3345,-0.045673494201717825
3219,-0.334125,-0.03729692909084384
3220,-0.33375,-0.02858530137553489
3221,-0.333375,-0.019706142358008463
3222,-0.333,-0.010826983340482044
3223,-0.332625,-0.0019478243229556211
3224,-0.33225,0.006763803392353315
3225,-0.331875,0.014637774596574865
3226,-0.3315,0.02150655798749153
3227,-0.331125,0.02686755965845088
3228,-0.33075,0.030888310911670394
3229,-0.330375,0.03356881174715007
3230,-0.33,0.034909062164889905
3231,-0.329625,0.03524412476932486
3232,-0.32925,0.03423893695601998
3233,-0.328875,0.03239609263162771
3234,-0.3285,0.029380529191713075
3235,-0.328125,0.025694840542928518
3236,-0.32775,0.021171495383056568
3237,-0.327375,0.015978025014314702
3238,-0.327,0.010114429436702913
3239,-0.326625,0.003915771254656163
3240,-0.32625,-0.0026179495318255433
3241,-0.325875,-0.009151670318307256
3242,-0.3255,-0.015685391104788962
3243,-0.325125,-0.022051580589053186
3244,-0.32475,-0.028250238771099924
3245,-0.324375,-0.03444889695314668
3246,-0.324,-0.040144961228540985
3247,-0.323625,-0.0458410255039353
3248,-0.32325,-0.05120202717489465
3249,-0.322875,-0.05606043493920156
3250,-0.3225,-0.06024871749463854
3251,-0.322125,-0.06343181223677066
3252,-0.32175,-0.06544218786338042
3253,-0.321375,-0.06661490697890278
3254,-0.321,-0.06678243828112025
3255,-0.320625,-0.06577725046781538
3256,-0.32025,-0.06376687484120562
3257,-0.319875,-0.060918842703508475
3258,-0.3195,-0.056898091450288964
3259,-0.319125,-0.05220721498819952
3260,-0.31875,-0.046846213317240176
3261,-0.318375,-0.04064755513519343
3262,-0.318,-0.03444889695314668
3263,-0.317625,-0.027747644864447488
3264,-0.31725,-0.02104639277574831
3265,-0.316875,-0.014680203291484076
3266,-0.3165,-0.008649076411654813
3267,-0.316125,-0.0031205434384779795
3268,-0.31575,0.001737864325828932
3269,-0.315375,0.0059261468812659215
3270,-0.315,0.009779366832267955
3271,-0.314625,0.013129992876617548
3272,-0.31425,0.015810493712097223
3273,-0.313875,0.017820869338706975
3274,-0.3135,0.019328651058664287
3275,-0.313125,0.019998776267534213
3276,-0.31275,0.01983124496531673
3277,-0.312375,0.018826057152011855
3278,-0.312,0.01715074412983706
3279,-0.311625,0.014470243294357388
3280,-0.31125,0.010952085947790312
3281,-0.310875,0.006428740787918358
3282,-0.3105,0.00106773911695901
3283,-0.310125,-0.004795856460652781
3284,-0.30975,-0.011497108549351959
3285,-0.309375,-0.018533423242486108
3286,-0.309,-0.025402206633402785
3287,-0.308625,-0.03243852132653692
3288,-0.30825,-0.03913977341523611
3289,-0.307875,-0.0458410255039353
3290,-0.3075,-0.05237474629041701
3291,-0.307125,-0.058573404472463765
3292,-0.30675,-0.06426946874785806
3293,-0.306375,-0.06946293911659993
3294,-0.306,-0.07381875297425443
3295,-0.305625,-0.07716937901860399
3296,-0.30525,-0.07984987985408368
3297,-0.304875,-0.08152519287625848
3298,-0.3045,-0.08236284938734587
3299,-0.304125,-0.0821953180851284
3300,-0.30375,-0.08102259896960604
3301,-0.303375,-0.07884469204077879
3302,-0.303,-0.07582912860086416
3303,-0.302625,-0.07180837734764464
3304,-0.30225,-0.06694996958333774
3305,-0.301875,-0.0614214366101609
3306,-0.3015,-0.0557253723347666
3307,-0.301125,-0.04952671415271985
3308,-0.30075,-0.04332805597067311
3309,-0.300375,-0.03696186648640888
3310,-0.3,-0.03059567700214465
3311,-0.299625,-0.024229487517880424
3312,-0.29925,-0.01786329803361619
3313,-0.298875,-0.011999702456004402
3314,-0.2985,-0.006638700785045054
3315,-0.298125,-0.0019478243229556211
3316,-0.29775,0.002240458232481368
3317,-0.297375,0.005591084276830964
3318,-0.297,0.008271585112310638
3319,-0.296625,0.010114429436702913
3320,-0.29625,0.01128714855222527
3321,-0.295875,0.011622211156660227
3322,-0.2955,0.01111961725000779
3323,-0.295125,0.009779366832267955
3324,-0.29475,0.007768991205658194
3325,-0.294375,0.004753427765743563
3326,-0.294,0.00106773911695901
3327,-0.293625,-0.0032880747406954587
3328,-0.29325,-0.008314013807219856
3329,-0.292875,-0.014010078082614159
3330,-0.2925,-0.01987367366022595
3331,-0.292125,-0.0260723318422727
3332,-0.29175,-0.03210345872210196
3333,-0.291375,-0.03796705429971376
3334,-0.291,-0.04366311857510806
3335,-0.290625,-0.049191651548284886
3336,-0.29025,-0.05455265321924424
3337,-0.289875,-0.05924352968133367
3338,-0.2895,-0.06326428093455319
3339,-0.289125,-0.06661490697890278
3340,-0.28875,-0.06896034520994747
3341,-0.288375,-0.07013306432546984
3342,-0.288,-0.07030059562768734
3343,-0.287625,-0.0697980017210349
3344,-0.28725,-0.06845775130329507
3345,-0.286875,-0.06627984437446782
3346,-0.2865,-0.06326428093455319
3347,-0.286125,-0.059578592285768624
3348,-0.28575,-0.055390309730331634
3349,-0.285375,-0.050531901966024716
3350,-0.285,-0.04517090029506538
3351,-0.284625,-0.03980989862410603
3352,-0.28425,-0.03444889695314668
3353,-0.283875,-0.029255426584404817
3354,-0.2835,-0.024229487517880424
3355,-0.283125,-0.01937107975357351
3356,-0.28275,-0.014680203291484076
3357,-0.282375,-0.010491920736047084
3358,-0.282,-0.006471169482827582
3359,-0.281625,-0.002785480834043022
3360,-0.28125,0.00023008260587160934
3361,-0.280875,0.002910583441351283
3362,-0.2805,0.004753427765743563
3363,-0.280125,0.0059261468812659215
3364,-0.27975,0.006261209485700879
3365,-0.279375,0.005758615579048443
3366,-0.279,0.004250833859091127
3367,-0.278625,0.001737864325828932
3368,-0.27825,-0.001445230416303185
3369,-0.277875,-0.005465981669522696
3370,-0.2775,-0.010156858131612129
3371,-0.277125,-0.015517859802571478
3372,-0.27675,-0.021381455380183267
3373,-0.276375,-0.02741258226001253
3374,-0.276,-0.033778771744276764
3375,-0.275625,-0.03980989862410603
3376,-0.27525,-0.04600855680615278
3377,-0.274875,-0.05203968368598205
